#                 frames                   t (s)                 x (pxl)                 y (pxl)                       f
                    41.0                 32.7816     -0.9974997794361864      0.1019978414631334                1.424453
                    42.0                  32.886                     nan                     nan                     nan
                    43.0                 32.9904     -0.8898084403118279      0.3048665523640409                1.285465
                    44.0      33.094800000000006                     nan                     nan                     nan
                    45.0      33.199200000000005                     nan                     nan                     nan
                    46.0                 33.3036     -0.7817634962171103     0.18806730169617752                1.445264
                    47.0                  33.408     -0.9398357613099968      0.4491854491820058                1.380966
                    48.0                 33.5124      -0.864035048251741      0.4959642944954443                1.457731
                    49.0                 33.6168     -0.9035706627058488      0.5097967157850998                1.804719
                    50.0                 33.7212     -0.8609204211667149      0.5304072455612598                1.970522
                    51.0                 33.8256     -0.9891166538945608      0.4099791049113489                1.592454
                    52.0                   33.93      -0.724130696819299      0.4136391111839454                1.811712
                    53.0      34.034400000000005     -0.8794758256330419     0.45528312005490823                1.479897
                    54.0                 34.1388     -0.7954844901111708      0.5795993938056021                1.893654
                    55.0                 34.2432     -0.7075343703790777       0.626482845396834                1.853504
                    56.0                 34.3476     -1.0395118085926724      0.8224321118744845                1.782823
                    57.0                  34.452     -0.8579871879238241       0.387942674092609                1.782691
                    58.0      34.556400000000004     -0.7270515732421712      0.5923364695217814                2.062758
                    59.0                 34.6608      -0.868874494327792     0.30575595358822427                1.939889
                    60.0                 34.7652     -1.0238031934779122     0.28963924807358477                2.312654
                    61.0                 34.8696     -0.9632056341703161     0.26270781976093377                2.246141
                    62.0      34.974000000000004      -0.896810603475491      0.3404790696161269                2.190788
                    63.0                 35.0784     -0.8696008483995765       0.358310552832831                2.494179
                    64.0                 35.1828     -0.8311367514900438     0.48313914419689297                  2.7936
                    65.0                 35.2872      -1.018797526499525      0.4202703296395917                2.552782
                    66.0      35.391600000000004     -0.8813915395594399       0.459166611287327                2.465629
                    67.0                  35.496     -0.8939634641944554     0.35382690157169083                2.716393
                    68.0                 35.6004     -0.8952859376051343      0.2866831520109417                2.924534
                    69.0                 35.7048     -0.9132980923570236     0.34646348532545435                 2.79352
                    70.0      35.809200000000004     -0.8527274577428363      0.4457697392042309                3.089824
                    71.0                 35.9136     -0.9036616997877276      0.3711146617324992                3.064144
                    72.0                  36.018     -0.8777883766330847      0.4169554572527914                2.694318
                    73.0                 36.1224     -0.9349500325134048      0.3549446325040513                 3.07887
                    74.0      36.226800000000004     -0.7937816420293717      0.3162460900359021                3.071212
                    75.0                 36.3312     -0.9549411593001247      0.3907692912155379                 3.00678
                    76.0                 36.4356      -0.956398226617958      0.3503565005691269                3.353316
                    77.0                   36.54     -0.9820789946316437      0.4673401515902439                3.011895
                    78.0      36.644400000000005     -0.8731429785951476       0.306579004048004                3.530889
                    79.0                 36.7488     -1.0055394083648943      0.3217065133349803                3.207843
                    80.0                 36.8532     -1.0194457362982146     0.31107917220887676                3.319858
                    81.0                 36.9576     -0.9909181160267388     0.32453887954772553                3.723102
                    82.0                  37.062     -0.9230493898346885      0.2778393405985386                3.597825
                    83.0                 37.1664     -0.8950103452924575     0.28617125077321026                3.433836
                    84.0                 37.2708     -0.9108648598144997     0.12268569505263566                3.464196
                    85.0                 37.3752     -0.9543638808584053      0.2617100144834847                3.380834
                    86.0      37.479600000000005     -1.0217596710870043       0.269117969428314                4.111651
                    87.0                  37.584     -0.9436338975765417     0.28718285953015277                3.851238
                    88.0                 37.6884     -0.7915530410993163      0.3061038783493525                3.745535
                    89.0                 37.7928     -0.9552593034888774     0.22029269795631856                3.935656
                    90.0                 37.8972     -0.9681286974881839      0.2516241477805792                4.176287
                    91.0                 38.0016     -0.7845585301716484      0.3129499517409105                4.138256
                    92.0                  38.106     -0.9230447524995082      0.3856939968192856                3.752642
                    93.0                 38.2104     -0.8041070961920496     0.36974189193975265                3.877553
                    94.0      38.314800000000005     -0.7406648201054893     0.26317684893804644                3.736198
                    95.0      38.419200000000004     -0.8203910987729716     0.36193131514001337                3.773332
                    96.0                 38.5236     -0.6770524832285375     0.23533095618786284                3.491234
                    97.0                  38.628     -0.8311555839208358     0.30428742959695076                3.384383
                    98.0                 38.7324     -0.7996823713738751     0.18017615405368115                3.826467
                    99.0      38.836800000000004     -0.6929481741357315      0.2602708856902316                3.594806
                   100.0                 38.9412     -0.8575084127171644     0.12348029882100603                3.417304
                   101.0                 39.0456     -0.8293911148333579       0.082101170800781                3.918639
                   102.0      39.150000000000006     -0.7485954858465322     0.20495049917346392                3.692968
                   103.0      39.254400000000004     -0.6569473223367686     0.17942584187337496                4.340511
                   104.0                 39.3588     -0.7821554152805759     0.12580420379346613                4.127563
                   105.0                 39.4632     -0.6630369951679578   -0.018837529143071463                3.816216
                   106.0                 39.5676     -0.5765713616859925   -0.025765406708179506                3.429605
                   107.0                  39.672     -0.4835146203166013  -0.0037606531828385525                3.747076
                   108.0                 39.7764     -0.5948416518297872    -0.13627230207249982                3.882541
                   109.0                 39.8808     -0.6152614375260215    -0.05409371969169602                4.439314
                   110.0                 39.9852     -0.5525208373218131     -0.1341702888990224                4.527929
                   111.0      40.089600000000004    -0.46812137978802987     -0.1339896843511259                4.395408
                   112.0                  40.194      -0.552175485860666    -0.13458537246683777                4.810887
                   113.0                 40.2984     -0.4799429986117053    -0.13926064302932598                4.593887
                   114.0                 40.4028    -0.48432552323797695    -0.21960224618671503                4.601274
                   115.0                 40.5072     -0.4879458752385062    -0.26832557667007717                4.607762
                   116.0                 40.6116     -0.4613199328893898     -0.1678716311824813                4.989489
                   117.0                  40.716     -0.3170687789582107     -0.2761416367912676                4.779333
                   118.0                 40.8204     -0.3198701316758549    -0.31081786916953413                4.948423
                   119.0      40.924800000000005    -0.49974941731077044    -0.36575187256881597                4.972112
                   120.0                 41.0292     -0.3035962958606293    -0.32864012135211024                5.479389
                   121.0                 41.1336     -0.3960001062157954     -0.3386765627955298                5.199001
                   122.0                  41.238     -0.3085368266054692    -0.29535959290141767                5.441826
                   123.0                 41.3424      -0.379734831638472     -0.3292304327982773                4.781803
                   124.0                 41.4468     -0.3487079798772588     -0.5210603619537363                4.997365
                   125.0                 41.5512     -0.3181057296331339     -0.5555436016506914                5.629916
                   126.0                 41.6556    -0.09658832431811556    -0.45124228511300546                5.238887
                   127.0      41.760000000000005    -0.01172873980552952     -0.5503246981102554                5.290657
                   128.0                 41.8644     0.02735507639019963     -0.5911831668233171                4.430669
                   129.0                 41.9688      0.2543832475529783     -0.5413855616250788                4.770102
                   130.0                 42.0732      0.2247449647667074     -0.7999131078469153                4.883898
                   131.0                 42.1776      0.3581588802899981     -0.5012748232370008                4.520433
                   132.0      42.282000000000004      0.7177783165015221     -0.4234150444811582                4.488478
                   133.0                 42.3864      1.0701386872265761     -0.3041428021634719                4.802708
                   134.0                 42.4908      0.9786160686939915      -0.361298526644405                4.460354
                   135.0      42.595200000000006      1.2436209841616248    -0.32365846815613936                5.151612
                   136.0      42.699600000000004      0.9699932824528448    -0.36637832018739536                4.869547
                   137.0                  42.804       1.270486470103961     -0.4049707888343814                4.460795
                   138.0                 42.9084      1.1749199429305333    -0.21140455679994635                4.933091
                   139.0                 43.0128      1.5570425570367639    -0.20090292180297786                4.726125
                   140.0      43.117200000000004        1.25226687419295    -0.34084332633320924                4.864749
                   141.0                 43.2216      1.3622828824150386     -0.2788959880540084                5.420962
                   142.0                  43.326      1.5574749718829484    -0.33676660148744053                5.354391
                   143.0      43.430400000000006      1.5795583051185897      -0.343100553981999                 5.37331
                   144.0      43.534800000000004      1.6354915395708933    -0.35986467160575053                5.814508
                   145.0                 43.6392      1.7071413719509803     -0.2987941179411272                5.189953
                   146.0                 43.7436      1.8682534025014716     -0.2550185349764805                 5.64232
                   147.0                  43.848      1.8672597512731088     -0.2921386984760832                 4.96354
                   148.0      43.952400000000004      1.5776704287439878    -0.27574061178488696                4.989847
                   149.0                 44.0568      1.6111799025771465     -0.2042412703234281                4.423155
                   150.0                 44.1612      1.5818987376243006    -0.13400346001441266                 4.71641
                   151.0                 44.2656       1.852180048611458    0.015993765843464014                4.515575
                   152.0      44.370000000000005      1.7226884347556766     -0.2038581197204865                4.814799
                   153.0                 44.4744      1.9385189081459706    0.018953996963356312                 4.85725
                   154.0                 44.5788      1.8039644069424048     0.04383180520401575                4.708512
                   155.0                 44.6832      1.7497787540934284    -0.12036424510577537                4.717515
                   156.0                 44.7876       1.777366915517891     0.03595574654986422                 4.48561
                   157.0                  44.892      1.7900539607490091    0.039969874637514446                4.227158
                   158.0                 44.9964      1.6160049586770273    -0.05140329963017776                4.048283
                   159.0       45.10080000000001       2.006259874060788    -0.24348793253141476                3.615808
                   160.0      45.205200000000005       1.927943155107048     0.16470251105753508                4.142192
                   161.0                 45.3096      1.8040843575992584    0.018783984303996304                 4.63069
                   162.0                  45.414       1.838048889476081    -0.18101583365484775                4.320967
                   163.0                 45.5184      1.6784315475071419    -0.10539437051262768                3.776709
                   164.0                 45.6228      1.8167225450373108    -0.22530374490476435                3.646558
                   165.0                 45.7272      1.6205686135939543     -0.4149376907828868                 3.21154
                   166.0                 45.8316      1.7406305624030862     -0.4153590530410738                3.386885
                   167.0       45.93600000000001      1.7138842483418086    -0.44803800420443474                3.636014
                   168.0      46.040400000000005      1.7808070085970709     -0.4770827722843408                4.308208
                   169.0      46.144800000000004      1.8209648544697026     -0.5152320185530515                3.964113
                   170.0                 46.2492      1.5844955425963376     -0.5529422234070169                3.831796
                   171.0                 46.3536      1.3756375902339362     -0.9583601923834768                3.876432
                   172.0                  46.458      1.3404664426067572     -0.9821713282359941                4.185326
                   173.0                 46.5624      1.5138985791427568     -0.9100765355630088                3.322645
                   174.0                 46.6668      1.7455337271981413     -0.5101483266325096                 2.72881
                   175.0                 46.7712      1.1270698818530582    -0.37865808088802766                 3.31573
                   176.0      46.875600000000006       1.173611438479056    -0.21797703312934813                3.402828
                   177.0      46.980000000000004       1.234023646873513     -0.3999246490161866                2.853306
                   178.0                 47.0844      1.1451928441314165    -0.06648822992826431                3.043941
                   179.0                 47.1888      1.0746478687132317    -0.12231723915507986                2.945227
                   180.0                 47.2932      1.1372505458979547     0.11482288796245627                 3.15741
                   181.0                 47.3976      1.2676426489973462     0.16611003344078779                2.935903
                   182.0                  47.502      0.7244323894064286    0.023512025585972374                3.204573
                   183.0                 47.6064      0.8383851164482725     0.13261056934214682                3.133402
                   184.0      47.710800000000006       1.028227114888245    -0.07867887993612893                 3.36508
                   185.0      47.815200000000004      0.9788344178984564     0.06580611434725497                2.813367
                   186.0                 47.9196      0.8235529953862359    0.043082822253325936                2.621088
                   187.0                  48.024      0.6620815750306728    -0.03939901419786829                2.472107
                   188.0                 48.1284       0.853075895899188    -0.12914206620739505                3.005746
                   189.0                 48.2328      0.7474552485530774    -0.11290587274384406                2.829479
                   190.0                 48.3372      0.6573733145090548    -0.24547209750296822                 2.66063
                   191.0                 48.4416      0.5200011529889453     -0.1878931347361826                2.302933
                   192.0       48.54600000000001      0.8333572962780016     0.24209823274463155                2.138145
                   193.0      48.650400000000005      0.6448997066757192    -0.10211297437287992                2.303602
                   194.0                 48.7548      0.4239443731845496   -0.061032664164714645                2.352184
                   195.0                 48.8592     0.46340493152665885     0.07987827766851577                2.044514
                   196.0                 48.9636     0.37207964805120913    -0.07331282893733818                2.357019
                   197.0                  49.068      0.5429695344913039     0.17633283042304534                2.337799
                   198.0                 49.1724      0.4789222661602862     0.23494823509053686                2.138915
                   199.0                 49.2768      0.6723906106844633     0.22615228937243098                2.081134
                   200.0       49.38120000000001      0.5185951103715551      0.1860571614452337                 2.07872
                   201.0      49.485600000000005      0.5133880109036089      0.4530363487242067                2.011627
                   202.0                   49.59       0.578771365719924      0.4986971134239288                2.426994
                   203.0                 49.6944     0.37579355145925064      0.2338867276174673                1.959868
                   204.0                 49.7988      0.3070638585267124    0.056136497065170377                2.169967
