#                 frames                   t (s)                 x (pxl)                 y (pxl)                       f
                   231.0       6.048000000000005                     nan                     nan                     nan
                   232.0       6.148800000000005                     nan                     nan                     nan
                   233.0      6.2496000000000045                     nan                     nan                     nan
                   234.0       6.350400000000004                     nan                     nan                     nan
                   235.0       6.451200000000004                     nan                     nan                     nan
                   236.0       6.552000000000003                     nan                     nan                     nan
                   237.0       6.652800000000003                     nan                     nan                     nan
                   238.0       6.753600000000002                     nan                     nan                     nan
                   239.0       6.854400000000002                     nan                     nan                     nan
                   240.0       6.955200000000001                     nan                     nan                     nan
                   241.0       7.056000000000001     0.10938460150913223      0.3745112752466325                1.127682
                   242.0      7.1568000000000005                     nan                     nan                     nan
                   243.0                  7.2576     -0.4436068707447003     0.29077980526932323                0.964492
                   244.0                  7.3584     0.06762063075875158     -0.1935888895237732                1.619294
                   245.0       7.459200000000003     -0.4671593946756807     0.09730209223631703                1.148755
                   246.0       7.560000000000002     0.08883126605026474    -0.01525765867641591                1.013505
                   247.0       7.660800000000002     0.30417136133008404    -0.03692303171431824                 1.56541
                   248.0       7.761600000000001    -0.24802129232414288     0.05679097956623848                1.360045
                   249.0       7.862400000000001   -0.056676278382111825      0.2564789767231245                1.751238
                   250.0      7.9632000000000005     -0.4509860926634562     0.11637846463837631                1.732487
                   251.0                   8.064    -0.34171848594797777     0.23332580234072725                1.205402
                   252.0       8.164800000000003     -0.6081163597874003     0.14123687558051218                1.800592
                   253.0       8.265600000000003     -0.4141975484599455      0.3892479835542536                1.805594
                   254.0       8.366400000000002    -0.15146980661434045  -0.0028160902764047258                 1.61859
                   255.0       8.467200000000002     -0.6284310114233609    -0.06989237231495543                1.274233
                   256.0       8.568000000000001     -0.4059954593513221      0.1318153049618607                1.446743
                   257.0       8.668800000000001     -0.0791769342646442     0.06724391788397316                 1.06715
                   258.0                  8.7696                     nan                     nan                     nan
                   259.0                  8.8704     -0.5334554516740702      0.1313363466202444                1.453087
                   260.0                  8.9712     -0.3161084471941228      0.3297645842493942                1.262867
                   261.0       9.072000000000003    -0.17941398516546944     0.08460159087622374                1.113665
                   262.0       9.172800000000002     -0.2355176871953889     0.45015307791810877                 1.67432
                   263.0       9.273600000000002     -0.5690036026384941     0.41098083211747666                1.824852
                   264.0       9.374400000000001     -0.5051734695267462       0.539654861276173                1.267529
                   265.0       9.475200000000001    -0.45128350557174485      0.3664225678493047                1.272968
                   266.0                   9.576     -0.3364077001946701     0.27156667438468474                1.542521
                   267.0                  9.6768     -0.5311873602931144     0.18641139951615152                1.802408
                   268.0       9.777600000000003    -0.23067434574357504   -0.014014105204056007                1.656434
                   269.0       9.878400000000003     -0.4911906811708417    -0.08107340809763788                1.503701
                   270.0       9.979200000000002    -0.19187540573807982     0.20903619266492113                1.344404
                   271.0      10.080000000000002                     nan                     nan                     nan
                   272.0      10.180800000000001    0.027543233053948617     0.11282126146052009                2.830785
                   273.0      10.281600000000001    -0.25003165234466007     0.03878660116575909                2.319394
                   274.0                 10.3824    -0.25396090766310425   -0.052801274989569574                 2.57133
                   275.0                 10.4832    -0.24103862180123772     -0.0946452246729336                2.336545
                   276.0                  10.584    -0.08442543170889166     -0.2674718311144487                2.232648
                   277.0      10.684800000000003    -0.33692659379638923    0.030067755881033192                2.819139
                   278.0      10.785600000000002   -0.053070741166730884    -0.02416552221350185                2.332561
                   279.0      10.886400000000002    -0.29380497935548217   -0.013652124871422339                 2.55771
                   280.0      10.987200000000001    -0.21719138838112587    -0.18037137468684034                2.605681
                   281.0      11.088000000000001    -0.41051562358735977    -0.22609054672582263                2.362946
                   282.0                 11.1888     -0.2631951119231346     0.08380406707539417                2.958297
                   283.0                 11.2896     0.07965711164998648      0.1002016801015208                2.780524
                   284.0      11.390400000000003   -0.006988993766594294       0.087302581639368                1.941756
                   285.0      11.491200000000003    -0.08587459460319904     0.23903750029901277                2.169095
                   286.0      11.592000000000002    -0.45168721528443173     0.12324819338630996                2.098146
                   287.0      11.692800000000002     -0.2188892149148539     0.14054150561724138                2.332453
                   288.0      11.793600000000001     -0.4726018518805878     0.05212448373861009                2.277361
                   289.0      11.894400000000001     0.03678674710901178     0.48500323641350385                2.265366
                   290.0                 11.9952     -0.2730989552709044   -0.010372772555921728                2.347464
                   291.0                  12.096    -0.11898054431070265     0.08634101274947761                1.795498
                   292.0                 12.1968     -0.1871377354142409    -0.11985848441255174                2.241249
                   293.0      12.297600000000003    -0.25853866061514225    0.007805060883108339                2.281923
                   294.0      12.398400000000002     0.09376851944618501   -0.045935374593757225                3.012774
                   295.0      12.499200000000002     0.17953860158155097    -0.24073750744523947                2.121787
                   296.0      12.600000000000001                     nan                     nan                     nan
                   297.0      12.700800000000001     0.16083715957207784     0.07095792821556042                 3.00604
                   298.0                 12.8016                     nan                     nan                     nan
                   299.0                 12.9024      0.3708624640086259    -0.11835535267179628                1.906784
                   300.0      13.003200000000003    -0.12379455578413114      0.1022684677732321                2.697013
                   301.0      13.104000000000003    -0.32742803354392247  -0.0020686775416334235                2.779709
                   302.0      13.204800000000002     -0.3268242460259566     0.15969721495006078                2.699923
                   303.0      13.305600000000002     -0.3403782005138787    0.007638777503330113                2.980378
                   304.0      13.406400000000001                     nan                     nan                     nan
                   305.0      13.507200000000001    -0.19482971130058235    -0.10017027230571271                3.199675
                   306.0                  13.608    -0.09397024641170382    -0.04346787623353577                3.452395
                   307.0                 13.7088   -0.006780554996773847    -0.03084873359360132                3.435981
                   308.0                 13.8096    -0.02753827189692815    -0.04243352664711531                3.889525
                   309.0      13.910400000000003     0.00591808984274185     0.06880830983153759                3.828127
                   310.0      14.011200000000002    0.019495227725730646     -0.0380741429467577                3.639414
                   311.0      14.112000000000002    0.032151434765541165     0.06094924123780744                3.618511
                   312.0      14.212800000000001     0.14732756242414335    -0.09069932360725756                3.378902
                   313.0      14.313600000000001                     nan                     nan                     nan
                   314.0                 14.4144   -0.060395328154157865    -0.09157587924759433                4.732075
                   315.0                 14.5152     0.07779033573933743     0.01699178626253114                4.350818
                   316.0      14.616000000000003     0.01816051290628714   -0.026272267614825283                4.811332
                   317.0      14.716800000000003    -0.06506276397099689   -0.009626127107057417                4.663485
                   318.0      14.817600000000002     0.04917506156329013    -0.16458812508460358                4.913496
                   319.0      14.918400000000002    0.038169551225354634     0.07304489910647617                5.713066
                   320.0      15.019200000000001    0.015667293653745237    -0.01478815237859646                5.045772
                   321.0      15.120000000000001    -0.02378804312116969     0.01834300129853251                4.134201
                   322.0                 15.2208     0.17840633567411288    -0.15772334856306974                3.751311
                   323.0                 15.3216    0.006334878823263598    -0.10736837388100313                4.631434
                   324.0                 15.4224     0.08868804173703149     -0.2452799143991877                3.757249
                   325.0                 15.5232     0.11692096173995792    -0.06698985917145166                4.103358
                   326.0      15.623999999999999    -0.19544850032831643     -0.1920847781257489                3.737596
                   327.0      15.724799999999998                     nan                     nan                     nan
                   328.0      15.825599999999998     0.10667361774372308    -0.04461518864823699                4.137629
                   329.0      15.926400000000005                     nan                     nan                     nan
                   330.0      16.027200000000004     0.11195815301985572    -0.11721787808130771                4.305877
                   331.0      16.128000000000004   -0.019647358554466213   -0.022948959533079627                4.483675
                   332.0      16.228800000000003      0.1474993761687218     -0.1381146384542179                4.435629
                   333.0      16.329600000000003    -0.09256468308758946     0.10669639328733407                3.837677
                   334.0      16.430400000000002     0.05784558869278052    -0.20544795705070262                4.243495
                   335.0      16.531200000000002     0.05372603833741217    -0.11078449945026139                4.585798
                   336.0                  16.632                     nan                     nan                     nan
                   337.0                 16.7328     0.10575057544810426    0.025698487901351208                4.136992
                   338.0                 16.8336     0.18971461629701603    0.003326082927250923                4.403773
                   339.0                 16.9344     0.05292826055975847    -0.19972867868429434                4.860413
                   340.0                 17.0352    0.032179528738582125    -0.23547112198093778                5.009903
                   341.0                  17.136  -0.0028149298568483708    -0.10697874057015686                5.472286
                   342.0                 17.2368      0.1109830431717002     0.01477090731269811                5.404888
                   343.0                 17.3376     0.22580546187530393    -0.10176219293376725                5.205684
                   344.0      17.438400000000005     0.16514788156548263    -0.14864728803827806                5.377018
                   345.0      17.539200000000005     0.04156091282435244   -0.004360136256242309                 4.82598
                   346.0      17.640000000000004     0.07490926197114914    -0.02145735644497415                4.942359
                   347.0      17.740800000000004    0.026568608432372826    -0.26354763653166924                5.435393
                   348.0      17.841600000000003    -0.02747701173308035  -0.0012898273458591333                6.157739
                   349.0      17.942400000000003     0.15337910586861014     0.01981534631008601                6.008949
                   350.0      18.043200000000002     0.09116195747210766    -0.09824548722672981                6.179684
                   351.0      18.144000000000002                     nan                     nan                     nan
                   352.0                 18.2448     -0.0757681609355659    -0.05013166046770665                5.151604
                   353.0                 18.3456    -0.04431841349349108   -0.006512337733068144                5.164922
                   354.0                 18.4464    -0.07848376734232264     -0.0375500490111488                 4.62748
                   355.0                 18.5472                     nan                     nan                     nan
                   356.0                  18.648    0.009974861566668441     0.00792621580398829                5.429674
                   357.0                 18.7488     0.06961088647184191     -0.1624913789610875                5.469025
                   358.0                 18.8496   -0.029206347999942643    -0.12044974949286262                6.046502
                   359.0                 18.9504    -0.05661946832797339   -0.003497526966383318                5.785688
                   360.0      19.051199999999998    0.061707975586433664    -0.01572961144468107                4.859547
                   361.0      19.152000000000005     0.05367865397672204     -0.2161768047088474                5.596561
                   362.0      19.252800000000004     0.04441961186457223    -0.11873882634226757                5.652921
                   363.0      19.353600000000004     0.17982446851331618     -0.1616820368875459                5.730221
                   364.0      19.454400000000003    0.039424847575900604    0.006394156386896235                4.994765
                   365.0      19.555200000000003     0.17743207841010294    -0.04907975919036499                5.290824
                   366.0      19.656000000000002     0.15492747306329616   -0.041121361978349924                5.330734
                   367.0      19.756800000000002      0.2011594405011311    -0.01759440289254667                 4.75167
                   368.0                 19.8576   0.0009874072830239333    -0.15776301666301124                5.030351
                   369.0                 19.9584   -0.011941024526793763      0.0806156173542651                5.865008
                   370.0                 20.0592     0.08489806826824697   -0.010928219312280323                6.309174
                   371.0                   20.16     0.05990273361769508     0.07759211529906283                5.612942
                   372.0                 20.2608     0.08858952297326315   -0.055847763434651365                6.194094
                   373.0                 20.3616   -0.007847427901621143     0.05960461588669926                7.103237
                   374.0                 20.4624                     nan                     nan                     nan
                   375.0                 20.5632    -0.14970286806955418   -0.046864157750234336                  5.9686
                   376.0      20.664000000000005    -0.10754526234843237      0.0320566734659901                5.575386
                   377.0      20.764800000000005     -0.2133386320869123      0.2461707826680214                 5.16065
                   378.0      20.865600000000004    -0.08051816717753416      0.2035111234187944                5.215011
                   379.0      20.966400000000004     0.05729519972857186     0.08410498962744709                 4.82317
                   380.0      21.067200000000003      0.1171668388446103    -0.14572484840400343                4.394761
                   381.0      21.168000000000003     0.01843160998930579     0.15295514826616127                4.323504
                   382.0      21.268800000000002      0.0719399486087527      0.2090002361792543                4.758638
                   383.0      21.369600000000002   -0.016022750766925997      0.3570589188410186                4.734688
                   384.0                 21.4704     0.16660034481516808     0.18986090204654552                4.171049
                   385.0                 21.5712    -0.05295564228869298     0.21950207003717917                4.088525
                   386.0                  21.672     0.13451036009398953      0.2947474815960374                3.521173
                   387.0                 21.7728      0.2264303256707695     0.23897860485134875                4.306493
                   388.0                 21.8736     0.09620605316232185      0.2825748184328639                5.040885
                   389.0                 21.9744     0.21713020444175013     0.12364115115513871                5.160968
                   390.0                 22.0752     0.18493341738162022     0.33347166618095403                5.664428
                   391.0                  22.176     0.07708139336866168     0.07815127463280326                4.750452
                   392.0      22.276800000000005                     nan                     nan                     nan
                   393.0      22.377600000000005       0.507787562512402      0.2631204084674043                4.217702
                   394.0      22.478400000000004      0.6320670731388551     0.15621482635193293                3.947074
