#                  frames                    t (s)                  x (pxl)                  y (pxl)                        f
                    370.0      -1.9677000000000007                      nan                      nan                      nan
                    371.0      -1.8740000000000006                      nan                      nan                      nan
                    372.0      -1.7803000000000004                      nan                      nan                      nan
                    373.0      -1.6866000000000003                      nan                      nan                      nan
                    374.0      -1.5929000000000002      0.42497217635168016      0.10283560833283009                 0.559701
                    375.0      -1.4992000000000019                      nan                      nan                      nan
                    376.0      -1.4055000000000035      0.31190536936916924       0.2608843203294129                 0.595006
                    377.0      -1.3118000000000052       0.7660851603764047      0.19680789401192192                 0.672163
                    378.0      -1.2180999999999997       0.6216837096147908      0.18779471239048734                 0.776048
                    379.0      -1.1244000000000014      0.33623540773742683      0.15315225985994974                  0.79642
                    380.0       -1.030700000000003       0.5888992111942931      0.04217115561371698                 0.803987
                    381.0      -0.9370000000000047       0.9476597771607068        0.369691556553044                  0.78389
                    382.0      -0.8432999999999993       1.1516224427730624      0.23395999504538956                 0.535225
                    383.0      -0.7496000000000009       0.6197198946704088      0.07010805549658106                 1.214505
                    384.0      -0.6559000000000026       0.8371360230160898       0.3678748015398123                  1.00297
                    385.0      -0.5622000000000043       0.4795257644852403       0.4079818995961456                 1.079298
                    386.0      -0.4685000000000059        0.940850956087159      0.22790687244510502                 1.243716
                    387.0     -0.37480000000000047       0.8191406390676111      0.13472067582776834                 1.356827
                    388.0      -0.2811000000000021        0.741437873192591      0.08133992753428895                 1.402874
                    389.0     -0.18740000000000379        0.897976825696512        0.198663275398118                 1.196975
                    390.0     -0.09370000000000545       0.7712172000749432      0.14470855689010503                 1.702308
                    391.0                      0.0       0.6879576353908511       0.2634827084745951                  1.77544
                    392.0      0.09369999999999834       0.7358442026307805      0.06573317381527374                 1.717255
                    393.0      0.18739999999999668      0.45751624035770044       0.1632586522397164                 1.761727
                    394.0        0.281099999999995        0.807949580870044       0.1217430536488571                 1.755443
                    395.0      0.37480000000000047       0.6982184034998783      0.15298479689336303                 1.888686
                    396.0       0.4684999999999988         0.59817751162173     -0.01608488086473725                 1.949057
                    397.0       0.5621999999999971        0.632099705250007     0.028684004752909886                 1.960763
                    398.0       0.6558999999999955       0.6952189425220332      0.19015172814740594                 2.246509
                    399.0       0.7496000000000009       0.7121572829125435     -0.08049363975276047                  1.90985
                    400.0       0.8432999999999993       0.6656949644121747      0.08612264407199578                 2.410266
                    401.0       0.9369999999999976       0.6945129278195087      0.13399226038604606                 2.543062
                    402.0        1.030699999999996       0.5843435797082673      0.09847675135484628                 2.350359
                    403.0       1.1243999999999943       0.6739059385658007   -1.514528579918406e-05                 2.234699
                    404.0       1.2180999999999997       0.7523893963577523      0.07448538208159108                 2.325972
                    405.0        1.311799999999998       0.6967379370051372     -0.09066353757859141                 2.381716
                    406.0       1.4054999999999964       0.7677048704575284      0.12377082306672468                 2.724409
                    407.0       1.4991999999999948        0.619977803021586     0.050955060214310816                 2.949514
                    408.0       1.5929000000000002       0.6683465023874684      0.03640604407394704                 2.830612
                    409.0       1.6865999999999985       0.6031401120521613      0.04053868057366947                 2.706148
                    410.0       1.7802999999999969       0.6607570544621251      0.08486581380296149                 3.014342
                    411.0       1.8739999999999952       0.5249210493134923       0.0919369526972061                 2.921566
                    412.0       1.9677000000000007       0.6400464167563182      0.05179459804334935                 3.053876
                    413.0        2.061399999999999       0.4973798256646248      0.05864769181741074                 3.062437
                    414.0       2.1550999999999974       0.6788886809005132     0.006399445646286528                 3.439818
                    415.0       2.2487999999999957       0.5976113378476007      0.03371961195727691                 3.185547
                    416.0        2.342500000000001       0.5072956197942828    -0.029050322155420083                 3.633455
                    417.0       2.4361999999999995       0.4967127931502591     -0.02690847687091405                 3.694607
                    418.0        2.529899999999998       0.5235703142907927    -0.008484539528810009                 3.551253
                    419.0        2.623599999999996       0.4167041961423754     -0.03025660020041586                 3.724031
                    420.0       2.7172999999999945       0.4474573766555069      -0.0495799150901271                 3.535924
                    421.0                    2.811      0.40308664817821954     -0.04355975642154637                 4.052739
                    422.0       2.9046999999999983      0.26125464949084676      0.08872659094787444                 3.644891
                    423.0       2.9983999999999966       0.3544664571340994    -0.038749479107933846                 3.818491
                    424.0        3.092099999999995       0.3559232842250227      0.09755325184353521                  4.12158
                    425.0       3.1858000000000004       0.4033326675540308      0.11009629184037031                  4.17623
                    426.0       3.2794999999999987      0.42203077098323305       0.1295721762400701                 4.762238
                    427.0        3.373199999999997       0.4147054532542329      0.01487754940791794                 4.741784
                    428.0       3.4668999999999954       0.3627970863106547     -0.03910965479132632                 4.578177
                    429.0        3.560600000000001       0.3684982626982788    -0.011554767515257705                 5.174353
                    430.0        3.654299999999999       0.3152465210036357      0.09540796682004808                 5.595572
                    431.0       3.7479999999999976      0.34299392191498057      0.13064798215297976                 4.900527
                    432.0        3.841699999999996       0.3615456125328173      0.08293640234032895                  5.63874
                    433.0       3.9353999999999942       0.3679283328320281      0.13869477214775125                  5.51616
                    434.0                   4.0291        0.232191617939741      0.10017878384094392                 5.349798
                    435.0        4.122799999999998       0.3231633928908227     0.061418773117904155                 5.447801
                    436.0        4.216499999999996       0.2676633285721305      0.05586703765766142                 6.444619
                    437.0        4.310199999999995      0.24650933298326236      0.08204632066209275                 5.892655
                    438.0                   4.4039       0.2669106457368617    -0.024792154307982067                 5.429919
                    439.0       4.4975999999999985      0.18000768506577114     0.027279846024228057                 6.421003
                    440.0        4.591299999999997      0.10184915018507465      0.04119673480378136                 6.225438
                    441.0        4.684999999999995       0.1366951202304188     0.019106108972931822                 6.364883
                    442.0        4.778700000000001      0.20334782321830513      0.04222862554031097                 6.624378
                    443.0        4.872399999999999      0.17644244586016652   -0.0031179688545854914                 6.749156
                    444.0        4.966099999999997      0.12974434289740883    -0.027157187574829572                 6.595195
                    445.0        5.059799999999996      0.15091549524262296      -0.0658063974293134                  6.94972
                    446.0        5.153500000000001      0.14381083456951319     -0.10483283686106556                 7.031894
                    447.0        5.247199999999999      0.07355027260909641     -0.10624143119790963                 6.850041
                    448.0        5.340899999999998      0.04049347140470831     -0.05950445482871519                 6.283372
                    449.0        5.434599999999996      0.08523473538298484     -0.04483868660382826                 7.078075
                    450.0        5.528299999999994      0.06311621443600066   -0.0033584541898381524                 6.929805
                    451.0                    5.622     0.019978991806456497      0.02799477449252729                 6.907182
                    452.0        5.715699999999998    -0.030870958254325703      -0.0328235639245601                 6.346481
                    453.0        5.809399999999997    -0.023808479464490506    0.0017243482170278936                 6.329175
                    454.0        5.903099999999995    -0.019363281452895273    -0.012002549452785357                 7.301694
                    455.0                   5.9968     -0.07909888980645925     -0.04077549917347866                 6.807429
                    456.0        6.090499999999999    -0.028715256092197185     -0.03757441955151651                  6.83477
                    457.0        6.184199999999997      0.04617828501865904     0.017307096953381777                 6.829255
                    458.0        6.277899999999995    -0.011766766356814288      0.06655072775061642                 7.542956
                    459.0        6.371600000000001    -0.031549988827751715      0.02018066143983759                 7.896026
                    460.0        6.465299999999999    0.0035818911407820946       0.0761286896434955                 7.492229
                    461.0       6.5589999999999975      0.03587417522697409      0.06561333508471666                 7.333569
                    462.0        6.652699999999996    -0.007801576421798803      0.02082667475025827                 7.658847
                    463.0        6.746400000000001     -0.08151605323858044     -0.12450157120567996                 7.468903
                    464.0                   6.8401     -0.06062413054386684    -0.028560811326896158                 7.010774
                    465.0        6.933799999999998     -0.08358554105726351     0.006270217587492209                 6.895758
                    466.0        7.027499999999996      -0.1178330130598288     -0.07057521302769078                 7.705003
                    467.0        7.121199999999995      -0.3424841777105365     -0.05565059855761015                 7.751612
                    468.0                   7.2149     -0.37760732554845955      0.03153623636001798                 7.226764
                    469.0        7.308599999999998      -0.1476089846019141      0.13716790279501018                 7.017626
                    470.0        7.402299999999997     -0.24392947220641914      0.12740647663751606                 7.098195
                    471.0        7.495999999999995      -0.1439318695361534   -0.0009368089920718733                 7.450077
                    472.0        7.589700000000001      -0.1546350506419551      0.07346352793739463                 6.841318
                    473.0        7.683399999999999     -0.19731746626612373      0.12771397008751445                 6.755988
                    474.0        7.777099999999997     -0.24273697858283239      0.18422646787262645                 6.602996
                    475.0        7.870799999999996      -0.2750399962984031      0.09542075070042899                 6.924127
                    476.0        7.964500000000001      -0.2632666801763839      0.14315670730016788                 6.079192
                    477.0                   8.0582      0.03537915340394463      0.14339848841357072                 6.522647
                    478.0        8.151899999999998     -0.04122741849348707      0.15440236296408802                 6.266343
                    479.0        8.245599999999996      -0.1812905409711853      0.04935993668406329                 6.972607
                    480.0        8.339299999999994     -0.13237392472098028    -0.058573133871866176                 7.600893
                    481.0                    8.433     -0.34071419297438393     -0.08505156315121037                  7.07605
                    482.0        8.526699999999998      -0.3992998728203729     -0.16022561320827844                  6.65592
                    483.0        8.620399999999997     -0.33528301662619947  -0.00037278122519036894                 6.311845
                    484.0        8.714099999999995     -0.28228402006881265       0.1577671812286763                 6.256355
                    485.0                   8.8078     -0.27884791162554756      0.14868872063416438                 6.418661
                    486.0        8.901499999999999       -0.206248410738592      0.33980005453397166                 6.709478
                    487.0        8.995199999999997     -0.15327465233839888      0.21140042120911745                 5.891727
                    488.0        9.088899999999995     -0.19189952803476906      0.34024298810933906                 5.413665
                    489.0                   9.1826     -0.23939066879450716       0.2889444976993989                 5.312815
                    490.0        9.276299999999999      -0.2460021753857451      0.07426665498247416                 5.563851
                    491.0        9.369999999999997      -0.1755526008311926      0.22286576293766608                 5.616257
                    492.0        9.463699999999996     -0.18714688289157616       0.2976854518537857                 4.985258
                    493.0        9.557400000000001      0.06713528784797651       0.8764482091680205                 4.694279
                    494.0                   9.6511       0.4242052188634955        1.415917308120484                 4.175334
                    495.0        9.744799999999998                      nan                      nan                      nan
                    496.0        9.838499999999996       0.5895316994368514        1.730252183960285                 4.723433
                    497.0        9.932199999999995        0.575383097677056       1.6794612297928126                 4.704317
                    498.0                  10.0259      0.45825264668992727        1.851928487881287                 4.091351
                    499.0       10.119599999999998       0.4415789964707545       1.5038095704286814                 4.022707
                    500.0       10.213299999999998                      nan                      nan                      nan
                    501.0       10.306999999999999                      nan                      nan                      nan
                    502.0       10.400699999999999                      nan                      nan                      nan
                    503.0       10.494399999999999                      nan                      nan                      nan
                    504.0       10.588099999999999                      nan                      nan                      nan
                    505.0       10.681799999999999                      nan                      nan                      nan
                    506.0                  10.7755                      nan                      nan                      nan
                    507.0                  10.8692                      nan                      nan                      nan
                    508.0                  10.9629                      nan                      nan                      nan
                    509.0                  11.0566                      nan                      nan                      nan
                    510.0                  11.1503                      nan                      nan                      nan
                    511.0                   11.244                      nan                      nan                      nan
                    512.0                  11.3377                      nan                      nan                      nan
                    513.0                  11.4314                      nan                      nan                      nan
                    514.0                  11.5251                      nan                      nan                      nan
                    515.0                  11.6188                      nan                      nan                      nan
                    516.0                  11.7125                      nan                      nan                      nan
#----------------------------------------------------------------------------------------------------------------------------
# experiment: sac6_raw_trajectories
# path: /Users/andreapicco/Google Drive/RESEARCH/EvoCellBio/Protein_tracking/Data/Fimbrin/24_degree/Sc/sac6_raw_trajectories
# file: 06.data
# protein: Sac6-GFP
# date: 29/08/11
# notes: Sac6 average trajectory
# t_unit: s
# delta_t: 0.0937
# coord_unit: pxl
# intensity_normalisation: None
# l_cm: (18.691714763661643, 47.26029534971715)
# r_cm: (78.1025558998144, 65.78713374359238)
# m_angle: 1.3064823882714898
# m_lag: -391
# trajalign_version: 1.92
# lie_down_angle: 0.32081018804975
# lie_down_translation: (-77.8422233205046, -65.82603096247885)
