#                  frames                    t (s)                  x (pxl)                  y (pxl)                        f
                     71.0                   44.512                      nan                      nan                      nan
                     72.0                   44.616                      nan                      nan                      nan
                     73.0                    44.72                      nan                      nan                      nan
                     74.0                   44.824       1.1339258669898693      0.34059857387201686                 0.870327
                     75.0                   44.928                      nan                      nan                      nan
                     76.0                   45.032                      nan                      nan                      nan
                     77.0       45.135999999999996       0.8801359783727486       0.2786625057395163                 0.816205
                     78.0                    45.24       0.9431632293047146      0.02176103792557409                 0.953693
                     79.0                   45.344       0.6629118793279817     -0.06576706513412359                 0.991455
                     80.0                   45.448       0.5625239068260687      0.09042005670681544                 1.046237
                     81.0                   45.552       0.6203276072483342       0.1170731988572805                 1.035604
                     82.0                   45.656       0.5545916707379772      0.03170490628851771                 1.166884
                     83.0                    45.76       0.4491135613184462      -0.0986430309037495                 1.255223
                     84.0                   45.864       0.3796090078451022      0.14012927819315382                 1.218158
                     85.0                   45.968       0.5495751606309128      -0.1498945256388698                  1.18311
                     86.0                   46.072       0.7401320724058065      0.20523058786314358                 1.336028
                     87.0                   46.176      0.49024343559227673      -0.1890995540528407                 1.181022
                     88.0                    46.28      0.49791346361062505      0.08990883806145063                 1.357789
                     89.0                   46.384       0.5573398106435389     0.016153049194925988                 1.522534
                     90.0                   46.488       0.4646096705651625      0.04663616055260324                 1.586941
                     91.0                   46.592       0.4952273122419889      -0.2156158370415937                 1.754472
                     92.0                   46.696       0.5795176809356724      0.04805304540660774                  1.44967
                     93.0                     46.8       0.6139626216751419     -0.08480295920913082                 1.339276
                     94.0       46.903999999999996        0.504164833822372      0.07111073245275842                 1.438116
                     95.0       47.007999999999996       0.5328654412653797     -0.08803236450844351                 1.430939
                     96.0                   47.112        0.418343140217603      -0.0541029041720531                 1.481093
                     97.0                   47.216      0.38436793101739314     -0.15255248282936107                 1.490695
                     98.0                    47.32       0.2995141251914648     -0.08487233609594139                 1.703351
                     99.0                   47.424       0.4331584726180096       0.0642244979580828                 1.524443
                    100.0                   47.528       0.3704313825152125     -0.09897044925608457                 1.682814
                    101.0                   47.632       0.5999143763045921      0.06478497246320658                  1.70883
                    102.0                   47.736       0.4254891251120507     0.010592879244552655                 1.636652
                    103.0                    47.84       0.5017209366319839     0.060283165019446826                 1.747581
                    104.0                   47.944       0.6159694990316074    -0.010604146501129404                 1.625184
                    105.0                   48.048      0.26436764092658244      -0.0962519937717616                 1.754109
                    106.0                   48.152       0.3707924937249661      -0.1149520970026292                 1.629893
                    107.0                   48.256      0.35465391755260756    -0.013549106651598287                 1.814504
                    108.0                    48.36          0.4007406228245     -0.19669955080662735                 1.987026
                    109.0                   48.464       0.3180082994126533     -0.08997777651535029                 1.859283
                    110.0                   48.568      0.35601951581605074      -0.3739064228994996                 1.842152
                    111.0                   48.672      0.19106671219217808     -0.15212230997519652                 2.052448
                    112.0       48.775999999999996      0.33225036296363664    -0.018192621568040794                 1.785785
                    113.0       48.879999999999995      0.22224779910899628     -0.03413850224004868                 1.983576
                    114.0                   48.984      0.20997857250002305     -0.16057595414183767                 2.209371
                    115.0                   49.088       0.2083701892330384    -0.005892664597458283                 2.001135
                    116.0                   49.192      0.27080132710377447     -0.16893591630744997                 1.775856
                    117.0                   49.296       0.5077994340473851      -0.0436390991166344                 1.755933
                    118.0                     49.4      0.23218530093055115     -0.12169134396745915                 1.689671
                    119.0                   49.504       0.1020986321177997      -0.2618290858866255                 1.667739
                    120.0                   49.608    -0.050312103272105335     -0.07005273299893061                 1.428626
                    121.0                   49.712    -0.021463728983170196       0.1695080718729917                  1.27157
                    122.0                   49.816     -0.10298266198013523      0.04738402537504262                 1.527888
                    123.0                    49.92     -0.13773250610213528       0.2600393762282394                 1.888346
                    124.0                   50.024    -0.006766833603320538      0.01270816812878223                 1.744459
                    125.0                   50.128       -0.072212059598036   -0.0022146681465019594                 1.565343
                    126.0                   50.232     -0.03428766197566475      0.15541698842978183                 2.171716
                    127.0                   50.336     -0.10665376924228503   -0.0007937199486024984                 2.084431
                    128.0                    50.44      -0.0743091810741828      -0.1049001187396334                 2.191132
                    129.0                   50.544     -0.07484011167434093      -0.0765634774125879                 2.214782
                    130.0       50.647999999999996      0.04670043540487106      -0.4261367139534818                 2.092533
                    131.0       50.751999999999995      -0.1359550956282616     -0.14217870278986128                 2.187872
                    132.0                   50.856     -0.11898604924671004      -0.2347778051229942                 2.139844
                    133.0                    50.96     -0.22793712017741039     -0.10922082434114314                 2.091401
                    134.0                   51.064     -0.09736117261941223      0.13044617746831133                 2.084807
                    135.0                   51.168      -0.2761635125155948     -0.06926260912769837                 1.668938
                    136.0                   51.272    -0.013608128107072327     -0.03752771661023832                 1.902886
                    137.0                   51.376     -0.15163062774747244      0.49672461935658263                 2.110518
                    138.0                    51.48     -0.09300013712650414     0.043557357039963954                 2.113926
                    139.0                   51.584      0.14715837017716135      0.31466460128785145                  2.11169
                    140.0                   51.688      -0.0656230119314362      0.09601555359735303                 2.426787
                    141.0                   51.792      -0.1746615278499236      -0.1350208239371997                 2.193217
                    142.0                   51.896  -0.00012798852515642355      0.09883271280699753                 1.965123
                    143.0                     52.0       0.0523703849712798       0.1857325504951476                 1.835301
                    144.0                   52.104     -0.14915895985940134    -0.031890974354797846                 1.687263
                    145.0                   52.208      0.12433704407067216      -0.1942057829592085                 1.820951
                    146.0                   52.312     -0.23646415967889892       0.3084607556385634                 2.174785
                    147.0                   52.416      0.12168208193250585      0.20273158094856136                 1.889548
                    148.0       52.519999999999996     -0.02019767740540397      0.07385302873672837                 2.203391
                    149.0       52.623999999999995      0.38111138005851136      -0.3058803669074201                 2.138979
                    150.0                   52.728      0.42240554494676447       -0.421414199991849                 1.861486
                    151.0                   52.832      0.30556737817358387     -0.26808767833925956                 1.982876
                    152.0                   52.936      0.16278893031552977      -0.3483572178997016                 1.934096
                    153.0                    53.04      0.21041201609112445      -0.4695343048683534                 1.754644
                    154.0                   53.144      0.18112988538997604      -0.3527439560907197                 2.093638
                    155.0       53.248000000000005       0.3947961550993907      -0.4019882008861274                 2.035373
                    156.0       53.352000000000004       0.3317680447476628     -0.17987559234151573                 1.577931
                    157.0                   53.456      0.14204185056529026      -0.3379556428825724                 1.396995
                    158.0                    53.56      0.21689249686816006     -0.37095180165964164                 1.623286
                    159.0                   53.664       0.2646057494284801      -0.0941655124415606                 1.824536
                    160.0                   53.768       0.5245394016265521     -0.14495712844236833                  1.79044
                    161.0                   53.872       0.3723260786028713     -0.07430549203465105                 2.014387
                    162.0                   53.976      0.36429886594832334     -0.10580158426842644                 1.922024
                    163.0                    54.08       0.4065584105792848     -0.35251228395652057                 1.605367
                    164.0                   54.184      0.30896220369958943    0.0032715363258209386                 1.796951
                    165.0                   54.288      -0.2378146062469123     -0.11084262394246726                  1.59864
                    166.0       54.391999999999996     -0.15944122802558716      0.12099450075110625                  1.71443
                    167.0       54.495999999999995     -0.19743429874330762     -0.16493261309862978                 2.112963
                    168.0       54.599999999999994      -0.3453422044249418      -0.3261758005109263                  1.58621
                    169.0                   54.704     -0.35221033728588597     0.030980824873518557                 1.861583
                    170.0                   54.808     -0.26544929041114984       0.7645185234590701                 1.483476
                    171.0                   54.912      -0.3082204683346424       0.5201204119032893                 1.476194
                    172.0                   55.016     -0.14566790690699263      0.04216231928082029                  1.87197
                    173.0       55.120000000000005     -0.11563833964822277      0.04404531563001414                 1.919468
                    174.0       55.224000000000004      -0.2388057864322836      0.12594506990127774                 1.973548
                    175.0                   55.328      0.04520689603377084     -0.20908910089094343                 1.805287
                    176.0                   55.432      -0.4360881407930205     0.005232021332020127                 1.162694
                    177.0                   55.536                      nan                      nan                      nan
                    178.0                    55.64                      nan                      nan                      nan
                    179.0                   55.744                      nan                      nan                      nan
                    180.0                   55.848                      nan                      nan                      nan
                    181.0                   55.952                      nan                      nan                      nan
                    182.0                   56.056                      nan                      nan                      nan
                    183.0                    56.16                      nan                      nan                      nan
                    184.0       56.263999999999996                      nan                      nan                      nan
                    185.0       56.367999999999995                      nan                      nan                      nan
                    186.0       56.471999999999994                      nan                      nan                      nan
                    187.0        56.57599999999999                      nan                      nan                      nan
                    188.0        56.67999999999999                      nan                      nan                      nan
                    189.0        56.78399999999999                      nan                      nan                      nan
                    190.0        56.88799999999999                      nan                      nan                      nan
                    191.0        56.99199999999999                      nan                      nan                      nan
#----------------------------------------------------------------------------------------------------------------------------
# experiment: fim1_raw_trajectories
# path: /Users/andreapicco/Documents/Research/EvoCellBio/Protein_tracking/Data/Fimbrin/24_degree/Sc/fim1_raw_trajectories
# file: fim1_raw_trajectories/03.data.txt
# protein: Sac6-GFP
# date: 01/06/23
# notes: Sac6 average trajectory
# t_unit: s
# delta_t: 0.104
# coord_unit: pxl
# intensity_normalisation: None
# l_cm: (111.06926006328156, 70.9715888585179)
# r_cm: (94.00094311926145, 58.65316639701861)
# m_angle: 0.9252850326339153
# m_lag: 357
# trajalign_version: 1.99
# lie_down_angle: -0.1068560185333173
# lie_down_translation: (-93.7693187038201, -58.661957347097044)
