#                frames                  t (s)                x (pxl)                y (pxl)                      f
                  221.0                 44.512                    nan                    nan                    nan
                  222.0                 44.616                    nan                    nan                    nan
                  223.0                  44.72                    nan                    nan                    nan
                  224.0                 44.824                    nan                    nan                    nan
                  225.0                 44.928                    nan                    nan                    nan
                  226.0                 45.032                    nan                    nan                    nan
                  227.0     45.135999999999996    -0.3403010465169925    -1.3249061960237754                2.76575
                  228.0     45.239999999999995                    nan                    nan                    nan
                  229.0     45.343999999999994                    nan                    nan                    nan
                  230.0      45.44799999999999     0.9570480550757497    -0.4653954448085885               2.357025
                  231.0      45.55199999999999     0.6586870518874073   -0.19629639061210852               2.564821
                  232.0                 45.656     0.3077115980506434    0.03621227047407455               2.955015
                  233.0                  45.76     0.1915255268981687   0.009452610626631842                3.10479
                  234.0                 45.864  -0.012873733162619446    0.19678153806871684               3.271791
                  235.0     45.967999999999996    0.12721729042053834     0.1420396270277015               3.076858
                  236.0                 46.072    0.09750526141216057    0.09229590471819142               3.037737
                  237.0                 46.176    0.23737658217420476   0.027128455049817347               3.468618
                  238.0                  46.28    0.19540995667611472     -0.087151598631042               3.338831
                  239.0                 46.384    0.12405837301293332    0.01695961979307976               3.813024
                  240.0                 46.488     0.2487802362431342   -0.11145018885635813               3.415087
                  241.0                 46.592    0.29253192784976845   -0.11299838992790613               3.489807
                  242.0                 46.696    0.22029959685876696   0.041496568027391115               3.431235
                  243.0                   46.8     0.5161236514019665   -0.10038833041364363               3.421466
                  244.0     46.903999999999996     0.4497019817081832    -0.1622674087850009               2.948417
                  245.0     47.007999999999996     0.4492079829312647   -0.07383549165544938               2.994418
                  246.0     47.111999999999995      0.447442067014929   -0.14809211483463638               3.362288
                  247.0     47.215999999999994     0.5777981119675364   -0.24680274098154087               2.925271
                  248.0      47.31999999999999     0.5383047177191231   -0.24853975673831824               3.174064
                  249.0      47.42399999999999     0.6909834483519924    -0.4382737847389157               2.778255
                  250.0                 47.528     1.4822413573427093    -0.9222738311817412               2.778207
                  251.0                 47.632     1.3437992450955074      -1.00671297853376                3.08435
                  252.0                 47.736     1.4345284600446098    -1.1405468536316554                3.49058
                  253.0     47.839999999999996     1.5844754825084937    -1.1927431576599614               3.144975
                  254.0                 47.944     1.4251778067229068    -1.1766829276084652               3.051502
                  255.0                 48.048     1.3689186183357251    -1.0650817965791717               2.933618
                  256.0                 48.152     1.4128928596260428    -1.2230617152901933               2.480743
                  257.0                 48.256     1.1730582452451224    -0.9917465763244142               2.458791
                  258.0                  48.36     1.1009960308531026      -1.06132774801559                2.87795
                  259.0                 48.464       1.23529969562462    -1.0048225114977443               2.847208
                  260.0                 48.568     1.4031113459117561    -1.1489272965533017               2.376893
                  261.0                 48.672     1.1248116478198378    -1.0903805628446885                2.64455
                  262.0     48.775999999999996     0.9710967309461866    -1.1052889670693553               2.885283
                  263.0     48.879999999999995     0.5753612379279645    -0.8446738505418918               2.569049
                  264.0     48.983999999999995     0.3966142569699119    -0.6074862020789451               2.648345
                  265.0     49.087999999999994    0.24924720084436164    -0.5445266374529786               2.733963
                  266.0      49.19199999999999   -0.28380889387793934    -0.9246806821354102                 2.1106
                  267.0                 49.296                    nan                    nan                    nan
                  268.0                   49.4      1.301678167633994    -1.9853284510894902               1.816817
                  269.0                 49.504      1.002533604716149    -1.8916194625841627               2.021057
                  270.0                 49.608     1.2321467084712288     -2.099444206139778               1.808466
                  271.0     49.711999999999996      1.407264837689552    -2.0278253464652605               1.425015
                  272.0                 49.816     1.5087716145230952    -1.9279416822259798               1.261928
                  273.0                  49.92                    nan                    nan                    nan
                  274.0                 50.024     0.5334359556189386    -0.8688301638224529                 1.0528
                  275.0                 50.128                    nan                    nan                    nan
                  276.0                 50.232                    nan                    nan                    nan
                  277.0                 50.336                    nan                    nan                    nan
                  278.0                  50.44                    nan                    nan                    nan
                  279.0                 50.544                    nan                    nan                    nan
                  280.0     50.647999999999996                    nan                    nan                    nan
                  281.0     50.751999999999995                    nan                    nan                    nan
                  282.0     50.855999999999995                    nan                    nan                    nan
                  283.0     50.959999999999994                    nan                    nan                    nan
                  284.0      51.06399999999999                    nan                    nan                    nan
                  285.0      51.16799999999999                    nan                    nan                    nan
                  286.0      51.27199999999999                    nan                    nan                    nan
                  287.0      51.37599999999999                    nan                    nan                    nan
                  288.0      51.47999999999999                    nan                    nan                    nan
                  289.0      51.58399999999999                    nan                    nan                    nan
                  290.0      51.68799999999999                    nan                    nan                    nan
                  291.0      51.79199999999999                    nan                    nan                    nan
                  292.0      51.89599999999999                    nan                    nan                    nan
                  293.0     51.999999999999986                    nan                    nan                    nan
                  294.0     52.103999999999985                    nan                    nan                    nan
                  295.0     52.207999999999984                    nan                    nan                    nan
                  296.0      52.31199999999998                    nan                    nan                    nan
                  297.0      52.41599999999998                    nan                    nan                    nan
                  298.0      52.51999999999998                    nan                    nan                    nan
                  299.0      52.62399999999998                    nan                    nan                    nan
                  300.0      52.72799999999998                    nan                    nan                    nan
                  301.0      52.83199999999998                    nan                    nan                    nan
                  302.0      52.93599999999998                    nan                    nan                    nan
                  303.0      53.03999999999998                    nan                    nan                    nan
                  304.0      53.14399999999998                    nan                    nan                    nan
                  305.0     53.247999999999976                    nan                    nan                    nan
                  306.0     53.351999999999975                    nan                    nan                    nan
                  307.0     53.455999999999975                    nan                    nan                    nan
                  308.0     53.559999999999974                    nan                    nan                    nan
                  309.0      53.66399999999997                    nan                    nan                    nan
                  310.0      53.76799999999997                    nan                    nan                    nan
                  311.0      53.87199999999997                    nan                    nan                    nan
                  312.0      53.97599999999997                    nan                    nan                    nan
                  313.0      54.07999999999997                    nan                    nan                    nan
                  314.0      54.18399999999997                    nan                    nan                    nan
                  315.0      54.28799999999997                    nan                    nan                    nan
                  316.0      54.39199999999997                    nan                    nan                    nan
                  317.0      54.49599999999997                    nan                    nan                    nan
                  318.0     54.599999999999966                    nan                    nan                    nan
                  319.0     54.703999999999965                    nan                    nan                    nan
                  320.0     54.807999999999964                    nan                    nan                    nan
                  321.0      54.91199999999996                    nan                    nan                    nan
                  322.0      55.01599999999996                    nan                    nan                    nan
                  323.0      55.11999999999996                    nan                    nan                    nan
                  324.0      55.22399999999996                    nan                    nan                    nan
                  325.0      55.32799999999996                    nan                    nan                    nan
                  326.0      55.43199999999996                    nan                    nan                    nan
                  327.0      55.53599999999996                    nan                    nan                    nan
                  328.0      55.63999999999996                    nan                    nan                    nan
                  329.0      55.74399999999996                    nan                    nan                    nan
                  330.0     55.847999999999956                    nan                    nan                    nan
                  331.0     55.951999999999956                    nan                    nan                    nan
                  332.0     56.055999999999955                    nan                    nan                    nan
                  333.0     56.159999999999954                    nan                    nan                    nan
                  334.0      56.26399999999995                    nan                    nan                    nan
                  335.0      56.36799999999995                    nan                    nan                    nan
                  336.0      56.47199999999995                    nan                    nan                    nan
                  337.0      56.57599999999995                    nan                    nan                    nan
                  338.0      56.67999999999995                    nan                    nan                    nan
                  339.0      56.78399999999995                    nan                    nan                    nan
                  340.0      56.88799999999995                    nan                    nan                    nan
                  341.0      56.99199999999995                    nan                    nan                    nan
#------------------------------------------------------------------------------------------------------------------
# experiment: fim1_raw_trajectories
# path: /Users/andreapicco/Documents/Research/EvoCellBio/Protein_tracking/Data/Fimbrin/24_degree/Sc/fim1_raw_trajectories
# file: fim1_raw_trajectories/09.data.txt
# protein: Sac6-GFP
# date: 01/06/23
# notes: Sac6 average trajectory
# t_unit: s
# delta_t: 0.104
# coord_unit: pxl
# intensity_normalisation: None
# l_cm: (48.136670825086185, 56.06205309402743)
# r_cm: (94.00094311926145, 58.65316639701861)
# m_angle: 0.23303964003276206
# m_lag: 207
# trajalign_version: 1.99
# lie_down_angle: -0.1068560185333173
# lie_down_translation: (-93.7693187038201, -58.661957347097044)
