#                 frames                   t (s)                 x (pxl)                 y (pxl)                       f
                     9.0                  21.945     0.07832758338382194     0.01742975442595277                0.935289
                    10.0      22.049500000000002                     nan                     nan                     nan
                    11.0                  22.154     0.13765317039794103    -0.35169930259127846                0.759778
                    12.0                 22.2585     0.11212026041652236     0.14425338218104708                0.985974
                    13.0                  22.363    -0.06901266017233372    -0.16260923923601106                0.973886
                    14.0                 22.4675    -0.07224205612715408      0.0637871471215548                0.924438
                    15.0                  22.572     0.07810020610684135    -0.04317229403425656                0.975334
                    16.0                 22.6765     0.03681202691001971    -0.19431777336993653                0.988898
                    17.0                  22.781     0.17801759706603956    -0.21917730035483646                1.055057
                    18.0                 22.8855     0.25045559766106495   -0.029586572588961857                0.803276
                    19.0                   22.99     0.31692151872488183    -0.30698820908942515                1.124124
                    20.0                 23.0945    -0.16590653461027324   -0.022999862980673927                0.985648
                    21.0                  23.199     0.02704893949458815    0.005456341843015322                1.228634
                    22.0                 23.3035    -0.18923696903115905   -0.006772838554345915                1.012456
                    23.0                  23.408    0.019089487773225285     0.07429330863626984                1.054542
                    24.0                 23.5125       0.127927981651189     0.10484404097408583                1.206735
                    25.0                  23.617    0.008293443435353936    -0.03905663329426346                1.056947
                    26.0                 23.7215     0.11788825816884478     0.06042006801580057                1.275122
                    27.0                  23.826    -0.15388470511469515      0.3232562568751025                1.107717
                    28.0                 23.9305    -0.04705071045159932     0.06237657700461876                1.204912
                    29.0                  24.035     0.13106909859914764   -0.007279056103722921                 1.20848
                    30.0      24.139499999999998      0.1789810906302136    -0.28851488123383534                1.502975
                    31.0                  24.244   -0.053394413575178996    -0.24393420759279105                1.166546
                    32.0                 24.3485    -0.09281496727480107    -0.04600012216277404                1.286746
                    33.0                  24.453    -0.24621132946501464      0.1638516385822983                1.206487
                    34.0                 24.5575     0.03306139515792358    -0.05008491844963913                1.237897
                    35.0                  24.662   -0.031191016838867984     0.32299285172381753                 1.32199
                    36.0                 24.7665   -0.007208636104454396     0.17395495756158957                1.278591
                    37.0                  24.871      0.1967399996530298   -0.033693392604408394                 1.28812
                    38.0                 24.9755    0.059383375982735555     0.15046009694954343                1.298476
                    39.0                   25.08     0.14599367255918583      0.1276280629416082                1.408383
                    40.0                 25.1845     0.04291611914656669     0.06857152374002132                1.476344
                    41.0                  25.289    0.027663274285072093     0.26727216413564686                1.459704
                    42.0                 25.3935     0.15755840532022347   -0.013008456284964161                1.334535
                    43.0                  25.498     0.04413036879659096     0.11789963287454408                1.471721
                    44.0                 25.6025    -0.07652918776928641     0.07172450784682603                1.531929
                    45.0                  25.707      0.0457149962548609     0.16439394909511834                1.509781
                    46.0                 25.8115    0.040540314979162405   -0.037664708857700985                1.407199
                    47.0                  25.916    -0.13172519755799778     0.12965096008071064                1.416232
                    48.0                 26.0205    -0.03564506493837078     -0.0781283244131812                1.270659
                    49.0                  26.125     -0.2757415683301979    -0.04199043310754623                 1.23442
                    50.0                 26.2295     0.06313304359741863   0.0013266788911505472                1.535305
                    51.0                  26.334     -0.1346241770333069   -0.021190562445421206                 1.47206
                    52.0                 26.4385    -0.18834320922058675    -0.04518397956058256                1.474118
                    53.0                  26.543    -0.11862458008469343    0.020346079865700143                1.724654
                    54.0                 26.6475    -0.13532187564986273     -0.1410408251136366                1.399929
                    55.0                  26.752    -0.07172058661099175    -0.04556003761377553                1.456852
                    56.0                 26.8565   -0.006128256995648042    -0.24155216850844713                1.465324
                    57.0                  26.961   -0.042200053083976626     -0.1607734704255841                1.376523
                    58.0                 27.0655    -0.04053677358088959    -0.09907041797033725                1.669853
                    59.0                   27.17     0.02772907116436197    -0.21240867196349714                1.575138
                    60.0                 27.2745    -0.08208838949928897    -0.04644026216997826                1.721795
                    61.0      27.378999999999998    -0.18920401528694072    -0.07223248691156546                 1.71366
                    62.0                 27.4835    -0.22773645303003964    -0.06718343971689286                1.680647
                    63.0                  27.588    -0.04867356524207794     -0.2688068844896531                1.484288
                    64.0                 27.6925    -0.05887770575244772     -0.2287242587467641                1.718769
                    65.0                  27.797    -0.05900509369032824    -0.18393876764402695                1.483624
                    66.0                 27.9015    -0.08199045121972015     -0.1906222801371835                 1.59371
                    67.0                  28.006    -0.24140567529640988    -0.16306890588686174                1.303008
                    68.0      28.110500000000002    -0.06354954049638913    -0.18770638495831013                 1.58506
                    69.0                  28.215     0.16482833695147375    -0.42747741831598896                1.812768
                    70.0      28.319499999999998    -0.13447495651780442    -0.04088427215785705                1.558879
                    71.0                  28.424       -0.08480662122975    -0.09892885827675223                1.545505
                    72.0                 28.5285     0.10072440194800794    -0.19854001471825336                1.552614
                    73.0                  28.633    -0.15145326289135144    -0.12544313343617305                1.728533
                    74.0                 28.7375     0.01965457499403144    -0.19284537235439608                1.666051
                    75.0                  28.842     0.05648569265062314   -0.032468312903344676                1.927232
                    76.0                 28.9465    -0.02803510347737105    -0.05549190573526361                1.479467
                    77.0      29.051000000000002    0.055694471130907815   0.0033948183111311963                2.056341
                    78.0                 29.1555    0.013842016107392304    -0.22033918971738423                2.040402
                    79.0      29.259999999999998    -0.13941538666699527    -0.12174606080948691                 2.14267
                    80.0                 29.3645    -0.06332753648711462    0.006536326161617377                 1.84614
                    81.0                  29.469    -0.09404670810832333    -0.08674921462530087                1.781864
                    82.0                 29.5735     -0.1012691165339582     -0.0382504211812001                1.946652
                    83.0      29.677999999999997    0.008792940400682348     0.09048549901327124                2.172153
                    84.0                 29.7825    -0.15638049585955976     -0.1420592885954493                1.986699
                    85.0                  29.887    -0.15340244928757393     0.02910018779897584                1.553854
                    86.0      29.991500000000002    -0.03164606645133532     0.12683060869562476                2.070925
                    87.0                  30.096    0.010347136255408987     0.11521943715997701                2.047759
                    88.0      30.200499999999998    -0.07187337402796495    0.011887807332793758                2.150594
                    89.0                  30.305    0.019689267082778635    0.004880355740001515                 1.63331
                    90.0                 30.4095    -0.21833449934784552  -0.0075823491903053986                1.795941
                    91.0                  30.514     0.07306722609427578     0.09437622793960086                1.817949
                    92.0      30.618499999999997    -0.08421795014914908      0.1409993881936465                1.724518
                    93.0                  30.723    0.021634883544935334     0.16360494600433917                2.059228
                    94.0                 30.8275    -0.06427849317491283     0.06461177194877768                1.737632
                    95.0      30.932000000000002    -0.09613408257061302    -0.17229132145493842                 1.80254
                    96.0                 31.0365     -0.1715222978188429     0.14985706192713988                1.732308
                    97.0                  31.141    -0.12148567821184753    0.030000288404298536                1.772384
                    98.0                 31.2455    -0.11356392640172129    -0.19681705938518862                1.817949
                    99.0                   31.35     -0.2612589642567281    -0.26438646485103323                1.747482
                   100.0                 31.4545    -0.25363507297683496     0.10745324543789327                 1.52827
                   101.0      31.558999999999997     -0.2543345682944992    -0.22478670897352143                 1.51158
                   102.0                 31.6635    -0.18612107532385008    -0.11286783570032441                1.796948
                   103.0                  31.768     -0.2674659243602118      -0.291677058986624                1.618836
                   104.0      31.872500000000002     -0.1283455797795007    -0.31369424111207866                1.764137
                   105.0                  31.977    -0.27813379637959806     -0.0830183990571226                1.895979
                   106.0                 32.0815    0.019890258384138142     0.07332553984740423                 1.70151
                   107.0                  32.186     -0.2919486505566156    -0.22320706579258615                1.786025
                   108.0                 32.2905    -0.10284509022897116     0.21236261508569615                 1.89122
                   109.0      32.394999999999996    -0.14415635485934836    -0.08816782045060023                1.952439
                   110.0                 32.4995     -0.3888468981056813    -0.09403054599537586                 2.04036
                   111.0                  32.604    0.020594043488999497     0.06543801479031679                1.732753
                   112.0                 32.7085    -0.10602452368027293    -0.14754290044154206                1.919102
                   113.0                  32.813     -0.2131390350673667   -0.021882449641361674                1.817879
                   114.0      32.917500000000004     -0.3029101407882875    -0.06386356293821503                1.773921
                   115.0                  33.022    -0.12309627815754827    -0.06592662324104759                2.112426
                   116.0                 33.1265    -0.16005898748225217    0.023451922201224554                2.287358
                   117.0                  33.231    -0.10199865718070891     0.14988043753805544                2.111772
                   118.0      33.335499999999996    -0.23478911339802874    -0.03859355733283977                2.357056
                   119.0                   33.44      -0.107263915513776     -0.1289707893638257                2.138034
                   120.0                 33.5445    -0.23494412529837327    -0.11178810833434011                2.370467
                   121.0                  33.649     -0.3670270490036279     -0.1822874799731842                2.628252
                   122.0                 33.7535    -0.12172164171526327   -0.012244775818934094                2.731281
                   123.0                  33.858    -0.21751143441739487    -0.19722164723826327                 2.61556
                   124.0                 33.9625     -0.0886112160599222    -0.17779850834683755                2.590936
                   125.0                  34.067     -0.2894446880257387    -0.15346754806666765                2.361814
                   126.0                 34.1715    -0.16807972491925727    -0.15471171130450548                2.209964
                   127.0      34.275999999999996    -0.10164839412096023     -0.0368499589317947                2.324055
                   128.0                 34.3805    -0.16628721349192818    -0.12053045762968552                2.327409
                   129.0                  34.485    -0.21642308175062516      -0.094712441556662                 2.33341
                   130.0                 34.5895     -0.1728290478517118    -0.18510664609113717                2.601046
                   131.0                  34.694    -0.21789668308397978   -0.023465724206943605                2.482651
                   132.0                 34.7985     -0.0707460896844436    -0.04826119157831611                2.597452
                   133.0                  34.903     -0.2653174171001506    -0.11247492572210908                2.571165
                   134.0                 35.0075     -0.1468705585865909    -0.12033619675602099                2.607226
                   135.0                  35.112    -0.15586801351382312    0.027319153535904042                2.768432
                   136.0      35.216499999999996   -0.055325975732767665    -0.14232867854228995                2.879165
                   137.0                  35.321    -0.20848826656423977    -0.04457974316570976                2.790749
                   138.0                 35.4255     0.06221607244211624     0.12060527598593655                2.614055
                   139.0                   35.53    0.060954088817961834     0.25576191371539586                2.448244
                   140.0                 35.6345    -0.20363117514349202    -0.00995482918848275                2.850603
                   141.0                  35.739     -0.1226359666391945    0.014308474056244561                2.243223
                   142.0                 35.8435     -0.1413911847097802     0.05760694580900371                2.551603
                   143.0                  35.948     -0.2199708167970879    -0.09080801099125232                2.232732
                   144.0                 36.0525    -0.24461945305430965   -0.029138633787822908                2.099777
                   145.0                  36.157    -0.30308326147064474     0.01295034850515333                2.643128
                   146.0                 36.2615    -0.16352042336085276    0.026819625225303907                2.350528
                   147.0                  36.366     -0.1430427052435538      0.0743715171404337                2.554555
                   148.0                 36.4705    -0.21466324944831164       -0.04168959500663                2.548399
                   149.0                  36.575     -0.1305462636597599    -0.02014511109895316                2.709056
                   150.0                 36.6795    -0.12546865904159682     0.10689696854531795                2.492138
                   151.0                  36.784     -0.1665936820250173    0.024182943563976492                2.939528
                   152.0                 36.8885    0.009370730876428318      0.3042088800649548                2.483705
                   153.0                  36.993     0.03880522691252757     0.22131847840046703                2.770923
                   154.0                 37.0975     -0.1989389056059005    0.015252293447520653                2.758182
                   155.0                  37.202      0.0358052635233651     0.13360691393109927                3.094455
                   156.0                 37.3065      0.2254081968124904      0.3111850779495414                3.083141
                   157.0                  37.411     0.21864497864008808     0.31197161463175466                2.939336
                   158.0                 37.5155    -0.08403780032714211       0.273639793794809                2.895396
                   159.0      37.620000000000005     -0.0766271753673139    0.032536721440465946                2.846134
                   160.0                 37.7245    -0.17348453223799143     0.04523954396248208                 3.16344
                   161.0                  37.829    -0.33434048758544815    0.011126856084552087                2.743148
                   162.0      37.933499999999995    -0.06982020654216325     0.22183391586608986                2.792628
                   163.0                  38.038     0.01887146142059364     0.27073843281477505                3.146724
                   164.0                 38.1425     -0.1176750711177766   -0.006388032064974955                2.904881
                   165.0                  38.247     -0.1438838049776674   -0.004781466329788349                2.884683
                   166.0                 38.3515     -0.1025619636397112   -0.006515182985132709                3.196071
                   167.0                  38.456     0.06924151958570883     0.20354293581205365                3.253996
                   168.0      38.560500000000005     -0.1391402650724391   -0.031212549814340747                2.940425
                   169.0                  38.665    -0.05912678625187097   -0.010762291917904194                2.879563
                   170.0                 38.7695      -0.192798513727725   -0.018417086077240175                 3.29083
                   171.0      38.873999999999995    -0.13413248957775215    -0.01051426250367592                2.808358
                   172.0                 38.9785     0.08448282650212563      0.1205245317532004                3.020562
