#                frames                  t (s)                x (pxl)                y (pxl)                      f
                  196.0      7.358399999999998    -0.2407254638466274   -0.45041912511018434               0.949822
                  197.0      7.459200000000001                    nan                    nan                    nan
                  198.0     7.5600000000000005   0.000830916560424145  0.0008708024160610248               0.777111
                  199.0                 7.6608                    nan                    nan                    nan
                  200.0                 7.7616    0.46872665188121787    0.05237567360923223               0.740587
                  201.0      7.862399999999999      -0.24342424709136     0.2826110849289322               0.757891
                  202.0      7.963199999999999     0.4057051524041526   -0.37641851229079853               0.719277
                  203.0      8.063999999999998   -0.24723141349291894     0.2850446701423236               0.725188
                  204.0      8.164800000000001   -0.17380922753744568   -0.23439558843370328               0.718875
                  205.0      8.265600000000001    -0.2872113019348458   -0.08067516786647931               0.672225
                  206.0                 8.3664    0.08456837513880144     0.5677903852078696               0.632147
                  207.0                 8.4672      0.392364944117308     0.8756482830196072                0.84115
                  208.0                  8.568   -0.20962834563703803    0.19623589604411396               0.743085
                  209.0                 8.6688   -0.20521883331527724    0.06641928551185167                1.06898
                  210.0      8.769599999999999   0.018416010232985225   -0.14641516325795578               1.358069
                  211.0      8.870399999999998     -0.173038395406472     0.2221221365615379                1.03539
                  212.0      8.971199999999998   0.053517856911397516     0.3825192731590325               0.830224
                  213.0      9.072000000000001    -0.2945863279062426   -0.30271268729262446               0.907155
                  214.0                 9.1728                    nan                    nan                    nan
                  215.0                 9.2736   -0.05095290299783416    0.02386035615154608               1.020809
                  216.0                 9.3744   -0.13527155830432436    0.04963494055759715               1.049741
                  217.0                 9.4752    -0.1512690153261428    0.17597461398537312               1.118428
                  218.0      9.575999999999999   -0.04838914235633654     0.2088566241689538               0.944835
                  219.0      9.676799999999998    0.38165728635840074    0.08580068109545738                1.01503
                  220.0      9.777600000000001   -0.17765898801414398    0.05847066393462453               1.016639
                  221.0      9.878400000000001   0.017940191633895056   -0.13839952225671004               0.829302
                  222.0                 9.9792   -0.11209000254957727    0.17291836271073344               0.886216
                  223.0                  10.08     0.1774092747510675    0.06240207969596447               1.199506
                  224.0                10.1808   -0.09984625551449029     0.2834158114394031               1.058837
                  225.0                10.2816    0.14370886457260895    -0.1605833618530237               1.215527
                  226.0     10.382399999999999     0.3816535216609671  0.0035237007253383357               1.447637
                  227.0     10.483199999999998    0.37569097693674236    0.19885115564505368               1.282551
                  228.0     10.583999999999998   -0.13754500504429035   -0.17844282963695435               1.198312
                  229.0     10.684800000000001   -0.20152531645927355   -0.11412832930273027               1.470256
                  230.0                10.7856     0.0862306781889115    0.21308815455013158               0.963859
                  231.0                10.8864   0.042974230839574315   -0.08342131634701064               1.318883
                  232.0                10.9872   -0.03359391969443599    -0.1462612836115164               1.271546
                  233.0                 11.088    0.19377257401762507    -0.0494535111080293               1.182174
                  234.0     11.188799999999999   -0.06531276929564046   -0.11450919698754641               1.414967
                  235.0     11.289599999999998    -0.4347861031612458   -0.06128838584919333               0.857332
                  236.0     11.390400000000001   -0.14322137500276358  -0.000581430482751763               1.250593
                  237.0     11.491200000000001    0.09980397037845601  -0.011167041864888767               1.259858
                  238.0                 11.592   -0.12047644876557365    0.19355011641386938               1.197884
                  239.0                11.6928    -0.2851868157248002    0.16915717066796654               0.875807
                  240.0                11.7936    -0.3643453765738981    0.12747490751802604               0.908017
                  241.0                11.8944  -0.029669336309473687     0.3569550197563792               0.812951
                  242.0     11.995199999999999   -0.08612576263660461    0.09519728143454458               1.304102
                  243.0     12.095999999999998   -0.05075739052086301   0.045338903213000936               1.245353
                  244.0     12.196799999999998   -0.08397192181728172   -0.18467227187149432               1.278998
                  245.0     12.297600000000001   -0.10263547246057764   0.010682361056371853               1.048608
                  246.0                12.3984   -0.08232812369424443     0.1212402011722258               1.050449
                  247.0                12.4992   -0.05175179721164598   -0.09036012385548177               1.372042
                  248.0                   12.6    0.07102355307010122   0.005626624934109266               1.283669
                  249.0                12.7008   -0.32677597960333254    0.07312181833933447               1.329458
                  250.0     12.801599999999999    0.02995969148780809   -0.09985630811646598               1.179365
                  251.0     12.902399999999998     0.1560283947751663   -0.29944029921154114               1.146308
                  252.0     13.003200000000001   -0.08431278728184652     0.1727248065940735               1.201932
                  253.0     13.104000000000001    -0.0787215640466384    0.11131943852470937               1.243805
                  254.0                13.2048    0.10537090432565792     0.1407022926679062               1.169767
                  255.0                13.3056   -0.04568110829297926    0.14449115184480416               1.244823
                  256.0                13.4064    -0.1434694810829028   -0.13231182700675825               1.413177
                  257.0                13.5072    0.13248081266994513   -0.12322391598627165               1.821446
                  258.0     13.607999999999999   -0.04631819712664245    0.08576944429285768               1.602158
                  259.0     13.708799999999998   -0.07072516884297465    0.07904970109556016                1.23204
                  260.0     13.809599999999998  -0.015178432577400154   -0.14393359736923397               1.443061
                  261.0     13.910400000000001    -0.3218706453892788   -0.15292481005457143                1.76623
                  262.0                14.0112   -0.05423505829402188   -0.09559861317940367                2.06034
                  263.0                 14.112   -0.10614795746076111   -0.04634517268937977               1.933524
                  264.0                14.2128   -0.22599569326652716    0.13002934733045393               1.820127
                  265.0                14.3136    0.08237487305243481   -0.23061271519292342               2.071464
                  266.0     14.414399999999999   0.026764701452310635   -0.29810396185206467               1.878714
                  267.0     14.515199999999998    0.12863563932228575   -0.05217917497100159               1.361939
                  268.0     14.616000000000001  -0.022455598016546577    0.12680874837698067               1.748731
                  269.0     14.716800000000001   -0.09409644315012358    0.03005893979038032               1.813713
                  270.0                14.8176   -0.11222745124234323    -0.3114122983111205               1.891379
                  271.0                14.9184   0.014022543743558068   -0.11153217599758955               1.873008
                  272.0                15.0192   -0.03712626832574412  -0.021159064753707074               1.597849
                  273.0                  15.12  0.0040063850761776695    0.06226052619542373               2.122205
                  274.0     15.220799999999999   -0.22897477709027397    0.17130270755918384               2.008257
                  275.0     15.321599999999998   -0.16431292353390986  -0.045062421462701445               1.990605
                  276.0     15.422399999999998  -0.056507839185319826     0.1318404400788873               2.180868
                  277.0     15.523200000000001   -0.07513137659176865    0.07379895950273348               2.182645
                  278.0                 15.624     -0.104508298563944    0.05376350109915951               2.124377
                  279.0                15.7248   0.025923569979035832     0.1657344512487125               2.108064
                  280.0                15.8256     0.2163408073596546   -0.18167139544982158               2.302007
                  281.0                15.9264   0.020689347045508226    0.01171608335618183               2.093632
                  282.0                16.0272   -0.07000458162354439  -0.012038227254253957                2.14891
                  283.0                 16.128   -0.14016385417039573     0.2718892062312909               2.281723
                  284.0                16.2288  -0.041790958011577714   -0.18004665813700765               2.092486
                  285.0                16.3296   0.007290478279390517    0.04885785941479318               2.538331
                  286.0                16.4304   -0.05537375312319978    -0.2218156907683123               2.428637
                  287.0                16.5312    -0.1304315316877704   -0.16478045217890944               2.646981
                  288.0     16.631999999999998    0.08919169707634161    -0.1150152712063455               2.880888
                  289.0     16.732799999999997   -0.09707444556191921    0.09938722644621567                2.56555
                  290.0     16.833599999999997    -0.1537507774197242  -0.018906666790677082                2.07534
                  291.0     16.934399999999997    0.01242281727439086    0.14539914890503458               2.999134
                  292.0     17.035199999999996    0.08250648756978601    0.10471703775128495               2.793192
                  293.0     17.136000000000003    0.02308250881546968     0.0843474106312574               2.744156
                  294.0     17.236800000000002    -0.1049227310786362    0.02135428932702744               2.678527
                  295.0     17.337600000000002    0.02225183158323868   -0.17527486927810224               2.491552
                  296.0                17.4384    0.07826506614107494   0.042931028232418754               3.087373
                  297.0                17.5392    0.15049847839659747   -0.15486648349846338               2.710013
                  298.0                  17.64   -0.05932205921702588    0.06683566601871033               2.373819
                  299.0                17.7408   0.022267667041967407  -0.010390775217322729               3.196967
                  300.0                17.8416   -0.04615113166227841  -0.049815971892421367               2.738458
                  301.0                17.9424  -0.021583993326339097    -0.1173521787372051               2.902282
                  302.0                18.0432   -0.05033590404389408   -0.13650105103015814               2.604384
                  303.0                 18.144  -0.023215794011060047  -0.012638292879014846               2.630454
                  304.0     18.244799999999998   -0.07176554081684611  -0.013873429346534284               2.648127
                  305.0     18.345599999999997    0.05697710508086072   -0.03827052329769549                2.80145
                  306.0     18.446399999999997   0.035464319532999694   -0.11207013974637917               2.246699
                  307.0     18.547199999999997   -0.04050973374624776    -0.1356875215089835               3.084564
                  308.0     18.647999999999996    0.14258543125321116   0.012711264155904678               3.361208
                  309.0     18.748800000000003  -0.030244694348755582   0.020317845806255175               2.968721
                  310.0     18.849600000000002   -0.09477628748047766   -0.08163732011425927               2.684181
                  311.0     18.950400000000002    0.04991040040113497   -0.08615225021902126               2.923765
                  312.0                19.0512    -0.0961722548525492     0.0375985387038507               2.667933
                  313.0                 19.152     0.0605858900445166    0.00673697603391233               2.726568
                  314.0                19.2528  -0.015487341118895378   -0.02952706077051663               2.575377
                  315.0                19.3536    0.05988223198646242   -0.07071366521802969               2.825571
                  316.0                19.4544    0.11048026904964833   -0.08860216407491886               2.825382
                  317.0                19.5552    0.02069954354281317   -0.02459387067894423               2.813214
                  318.0                 19.656   0.024437689149813743    0.07015816064186448                2.77445
                  319.0                19.7568   0.057849233950329884   -0.23622351652900891               2.935152
                  320.0     19.857599999999998    0.08982950718783886   -0.07205962138865825               3.073091
                  321.0     19.958399999999997  -0.005970404719794134   -0.03461902567372664               3.510299
                  322.0     20.059199999999997    0.07750040883142625   0.023122144058922517               3.432613
                  323.0     20.159999999999997    0.05725333657885874    -0.0946714596477164               3.527569
                  324.0     20.260799999999996    0.13876124855043626   -0.21254273923284484               3.226096
                  325.0     20.361599999999996    0.12970152599956908    -0.1426060372995813               3.016178
                  326.0     20.462399999999995   0.035779309832432896    -0.0735319344805471               3.275713
                  327.0     20.563199999999995    0.16040255515565027   -0.10392770494467415               3.770754
                  328.0     20.663999999999994    0.16735526211933346   -0.07210141017326717               3.574205
                  329.0                20.7648    0.14845529627060625   -0.05926482246790963               3.107527
                  330.0                20.8656    0.10572616873279296  -0.012887831989256152               3.535904
                  331.0                20.9664    0.11791103218117067   -0.04851572691365491               3.112067
                  332.0                21.0672     0.2895293538289329   -0.14439743824490042               3.373559
                  333.0                 21.168     0.3619604692419633    -0.1810107326886442               2.999929
                  334.0                21.2688    0.24653032864818744   -0.18568594354004758               3.738113
                  335.0                21.3696     0.3989529897155284    -0.1444083632433268               3.922304
                  336.0     21.470399999999998     0.5681013197651481   -0.21202199520038212               3.890459
                  337.0     21.571199999999997    0.47395502910021603   -0.12362736403404023               4.482519
                  338.0     21.671999999999997    0.48235902187459856   -0.03032251418448975               3.877172
                  339.0     21.772799999999997     0.6020693745873841   -0.09332910437456005                3.75352
                  340.0     21.873599999999996      0.563574915495407   -0.13113216086758714               3.857792
                  341.0     21.974399999999996     0.6449723790128054   0.027957383295249327                4.04786
                  342.0     22.075199999999995     0.6776474829333354   -0.08953947961088843               4.343448
                  343.0     22.175999999999995     0.6177093644041343   -0.05321614871765612               4.283429
                  344.0                22.2768     0.6723662653840121    -0.0836432915883939               3.910697
                  345.0                22.3776      0.706191784569499   -0.04830790629501408               3.803581
                  346.0                22.4784     0.7500789296269845   -0.11830280227825013                3.63341
                  347.0                22.5792     0.7530786353238546    -0.2776328077063732               4.027283
                  348.0                  22.68     0.7956757262721059   -0.14662393293545523               3.760924
                  349.0                22.7808     0.8706409418750398   -0.03513327189784271               4.037237
                  350.0                22.8816     0.8349664854705343   -0.02082490003928167               3.856839
                  351.0                22.9824     0.8997540198353418   -0.10577032861509411               3.753239
                  352.0     23.083199999999998     1.0565226453325491   -0.10808082308860606               3.989391
                  353.0     23.183999999999997     0.9608068050590689   -0.03571226954675211               3.884254
                  354.0     23.284799999999997     1.1149455616444015   -0.12422380576282938               3.715839
                  355.0     23.385599999999997     1.1695587944951997     0.0721912392352082               3.584965
                  356.0     23.486399999999996     1.1663608001335233    0.02988124691585692               3.295796
                  357.0     23.587199999999996      0.961739297582136    0.15532513183501562               3.693294
                  358.0     23.687999999999995     1.0174178593047545     0.0409993145210768               3.631193
                  359.0     23.788799999999995     1.0505663738430135  -0.009635839946009805                3.77198
                  360.0     23.889599999999994     1.0538626679502752    0.07659832971518965                3.79822
                  361.0                23.9904     1.1607903509694972    0.20054103800069412                3.78082
                  362.0                24.0912     1.1584658335421767   -0.07114765817332547                2.83598
                  363.0                 24.192     1.1219583709659844    0.05499056759605592               3.063821
                  364.0                24.2928     1.0141346644421616    -0.2849600173372139               2.943432
                  365.0                24.3936     0.8619977708349796   -0.43614292178593406               3.363613
                  366.0                24.4944     0.7863640543267894   -0.25145941154162704               3.080101
