#                  frames                    t (s)                  x (pxl)                  y (pxl)                        f
                     51.0                  24.2928       0.3942673048194607      0.38017852129181917                 1.137149
                     52.0                  24.3936      -0.3323916702676929       0.3198534894868573                 0.994968
                     53.0                  24.4944     -0.30218049994779417       0.2634769800001574                 1.053811
                     54.0       24.595200000000002      -0.7031567573561985     -0.19055686304653832                 1.127851
                     55.0                   24.696      -0.1354382977067054      0.23208533226079045                 1.146582
                     56.0                  24.7968     -0.48586523744637106      0.04903263268579669                   1.3992
                     57.0                  24.8976     -0.30360817440036153        0.510506812651313                 1.166186
                     58.0       24.998400000000004                      nan                      nan                      nan
                     59.0       25.099200000000003      -0.5265312207447828     -0.21123138305855013                 1.298496
                     60.0       25.200000000000003      -0.5980873212339943       0.1082234479814039                 1.329892
                     61.0       25.300800000000002     -0.31999799692063935       -0.146677593744443                 1.240555
                     62.0       25.401600000000002      -0.3099067915635565      0.19999994223161938                 1.471131
                     63.0                  25.5024      -0.7006706277000787      0.07818507206841963                 1.408743
                     64.0                  25.6032      -0.4980618611099772      0.29582970389250074                 1.749798
                     65.0                   25.704     -0.46650397608064187      0.03613865741327277                 1.184669
                     66.0                  25.8048      -0.4169143099916996       0.1259748652316711                 1.652548
                     67.0                  25.9056      -0.5722557290248533      0.24090389912981386                 1.841407
                     68.0                  26.0064     -0.19790979467265998      0.49820428555582974                 1.336925
                     69.0                  26.1072     -0.16054893884355936        0.271685439062389                 1.448547
                     70.0       26.208000000000002      -0.5028521032849719       0.3392079906832994                 1.536654
                     71.0                  26.3088      -0.1368424641895081     -0.07865132618568167                 1.389167
                     72.0                  26.4096     -0.30683451970243375       0.2457662219101343                  1.62183
                     73.0                  26.5104     -0.36456663180690807      -0.1563880228479636                 1.650462
                     74.0                  26.6112     -0.04568297423174379      0.05671374518665883                 1.792959
                     75.0       26.712000000000003      -0.2701925136830635      0.10614335227954663                 1.671599
                     76.0       26.812800000000003      -0.3810269153712219      0.17928052779535636                 1.434915
                     77.0       26.913600000000002       -0.579444686868516      0.20443257063574402                  1.63832
                     78.0       27.014400000000002      -0.5579165816262024   -0.0038332660002161068                 1.745881
                     79.0                  27.1152      -0.4808627475517957     -0.07574791106944057                 1.354607
                     80.0                   27.216      -0.1964208785958883     -0.04345319517247369                  1.69024
                     81.0                  27.3168     -0.46481035632931056    0.0029302619967913612                 1.459113
                     82.0                  27.4176      -0.3792920724423959      0.07950895933513086                  1.77343
                     83.0                  27.5184     -0.33583940312791233      0.05305595743656061                 1.830367
                     84.0                  27.6192     -0.41342374559726536      0.18904708216754154                 2.006547
                     85.0                    27.72      -0.2090358442285807    -0.004092319838132713                  2.22263
                     86.0       27.820800000000002     -0.25927060224899595      0.07340447003491876                 1.823447
                     87.0                  27.9216      -0.5300275936826275      0.17731527596875388                 1.891828
                     88.0                  28.0224     -0.03072734491453078      0.13161555938179925                 1.873508
                     89.0                  28.1232      -0.3697051920074291      0.29648555364780677                 1.864062
                     90.0                   28.224     -0.41034844105160273     -0.04425377480889883                 1.719487
                     91.0       28.324800000000003      -0.5032090289757352     -0.01674643536313475                 1.861415
                     92.0       28.425600000000003      -0.2161491424649703      0.12564586984480103                 1.850507
                     93.0       28.526400000000002      -0.1306451212553968      0.14597919551952557                 2.053334
                     94.0       28.627200000000002     -0.23777669339715368     -0.27222258157308626                 1.612238
                     95.0                   28.728      -0.3457230764040277     -0.04236187915374731                  1.87659
                     96.0                  28.8288      -0.0772709381051282      0.06315915815513375                 1.786798
                     97.0                  28.9296      -0.5067672553934817     -0.11503592862545356                 2.228432
                     98.0                  29.0304      -0.4361597646700571      -0.1876068071907388                  2.13583
                     99.0                  29.1312     -0.09762408249046955     0.003918424097991022                 2.051966
                    100.0                   29.232      -0.2669036386099435      0.16064243569159048                 2.413521
                    101.0                  29.3328     -0.41407427074310993     0.004783529216788429                 2.365733
                    102.0       29.433600000000002      -0.3642940913676809     -0.03252647472784945                 2.463766
                    103.0                  29.5344     -0.13420956922573485       0.1640143179939408                 2.173426
                    104.0                  29.6352      -0.4018571764445896      0.03742189426317588                 2.259404
                    105.0                   29.736     -0.16819748850237526     -0.03045714882637915                 1.751096
                    106.0                  29.8368      -0.2205832603555561     -0.03396047186984784                 1.711522
                    107.0       29.937600000000003     -0.13567754567491855      0.14083430985881176                 2.152606
                    108.0       30.038400000000003      -0.2562995797228259     0.011086311099127166                 1.936208
                    109.0       30.139200000000002     -0.33088314683444303      0.23605773335295963                 2.620432
                    110.0       30.240000000000002     -0.17387422883486817     -0.07361425200994992                 2.066178
                    111.0                  30.3408     -0.33481360236678126      0.11819092744343282                 2.208712
                    112.0                  30.4416      -0.0662536340892427      0.08059144647944395                 1.826212
                    113.0                  30.5424                      nan                      nan                      nan
                    114.0                  30.6432     -0.12871597343078464    -0.008487778292567465                 2.121405
                    115.0                   30.744      0.02933668504200023   -0.0049637400283923105                 2.504941
                    116.0                  30.8448     -0.27740987030185393     -0.04507190683617519                 2.719569
                    117.0                  30.9456     -0.12045728076164872     0.009940222559308022                 2.358773
                    118.0       31.046400000000002     -0.06917062235257684    -0.021376856730301517                 2.114772
                    119.0                  31.1472     -0.22135931553139393     -0.04102589127453636                 2.493801
                    120.0                   31.248     -0.48809314162485407       -0.273883635656257                 2.341846
                    121.0                  31.3488      -0.2508613370470697      0.20449582500835792                 2.682149
                    122.0                  31.4496     -0.08656753926252947     -0.34021856414486357                 2.197474
                    123.0       31.550400000000003     -0.17702067356041645     -0.13590487144488272                 2.113833
                    124.0       31.651200000000003      0.08617655305390753   -0.0053936986184675365                 2.147678
                    125.0       31.752000000000002      0.07578768062513812     -0.04139191333333188                 2.676588
                    126.0       31.852800000000002     -0.14133367079519082       -0.096966593893937                 2.864682
                    127.0                  31.9536     -0.25877843516118304       0.1853211695107636                 2.415831
                    128.0                  32.0544     -0.15448924944800096     -0.24365159031589328                 2.087634
                    129.0                  32.1552     -0.14408881301605192     -0.17292317422995868                 2.266439
                    130.0                   32.256  -0.00013116535475504038     -0.09776614022897842                 2.405743
                    131.0                  32.3568      0.19144962536144336      0.09475693021597176                 2.127366
                    132.0                  32.4576     0.041872371681133363      0.15877620989369434                 2.289725
                    133.0                  32.5584      -0.1778173153879163     -0.07254360293803211                   2.3074
                    134.0                  32.6592      -0.1306659754927291      -0.0410216923663257                 2.191152
                    135.0       32.760000000000005      0.08351681832482376      0.23530463243552746                 2.459881
                    136.0                  32.8608      0.09057049772563355     -0.03758140489307456                 2.061841
                    137.0       32.961600000000004     0.017593960032499165      0.02414674793303193                 2.353952
                    138.0                  33.0624       0.3667007260640695     -0.09831877762817545                 2.458999
                    139.0                  33.1632       0.5378009299618068     -0.11884739560780294                 2.199647
                    140.0                   33.264        0.490258715471781    -0.047969938808158724                 2.266387
                    141.0                  33.3648      0.10820894808855008      -0.4228271500918981                 2.551979
                    142.0                  33.4656        0.368777742569724      -0.4130630276208163                 2.347809
                    143.0                  33.5664      0.46687450691286114      -0.4377040199995256                 2.284975
                    144.0                  33.6672      0.40533625334945733     -0.37654840552819213                  2.64421
                    145.0                   33.768       0.6229598586940257      -0.3269712216950097                  2.30381
                    146.0                  33.8688      0.21043781486354907     -0.45756217771387525                 2.243232
                    147.0                  33.9696       0.5449928422670802      -0.3446849670776404                 2.617131
                    148.0                  34.0704       0.8444062455453878      -0.5675175720736543                 2.740837
                    149.0                  34.1712       0.8199354661933554      -0.5299276137482516                 2.391448
                    150.0       34.272000000000006       0.8972344799996541      -0.2638719729462531                 2.120233
                    151.0                  34.3728       0.6005126335264921      -0.4848991694663985                 2.600082
                    152.0       34.473600000000005       0.4875048322888512     -0.38173147759808185                 2.239762
                    153.0                  34.5744       0.8396830944452081     -0.38694306406743817                 2.030135
                    154.0       34.675200000000004       0.8539846943954038     -0.46625520076708826                 2.431924
                    155.0                   34.776        0.819324941331094      -0.4703140369943599                 2.473102
                    156.0                  34.8768        0.763005848776494      -0.7528494535615952                 2.182463
                    157.0                  34.9776       0.7130709217015956      -0.6878292155120516                 2.113278
                    158.0                  35.0784       0.9260150279067731      -0.6163764260460113                 2.221309
                    159.0                  35.1792       0.8512629473242099       -0.432727526140292                 2.763955
                    160.0                    35.28       0.9486721960491608      -0.7365647289575816                 2.221591
                    161.0                  35.3808       0.8987631796720101      -0.5179783146170256                 2.592561
                    162.0                  35.4816       0.9888501729085665      -0.5466840298423655                 2.944769
                    163.0                  35.5824       0.7732165012323267       -0.475943708091362                 2.133948
                    164.0                  35.6832       0.8807886414837611      -0.6791411749351344                 1.688685
                    165.0       35.784000000000006       1.0004626121685871      -0.7388998270663055                 1.996148
                    166.0                  35.8848       1.0217990572658182      -0.7785823853962788                 1.995669
                    167.0       35.985600000000005        1.197523370061289      -0.6141318792080787                 2.182467
                    168.0                  36.0864       1.3221354146305093      -0.4560381707017778                 1.989159
                    169.0       36.187200000000004        0.928935589890619     -0.29996015056273145                 1.948193
                    170.0                   36.288        1.326544412157137      -0.2910369238009959                 2.466859
                    171.0                  36.3888       1.3728987480893609      -0.6938883049147719                 2.429028
                    172.0                  36.4896       1.3779735619582767      -0.5933676141033892                 2.418991
                    173.0                  36.5904       1.2357668003612008      -0.1335034713991986                   2.4011
                    174.0                  36.6912        1.615394704767286      -0.2137046691847867                   2.0724
                    175.0                   36.792       1.4536878612670818     -0.09950613946484066                  2.14839
                    176.0                  36.8928       1.6839785038899227     -0.05810921550472836                 2.203714
                    177.0                  36.9936       1.8191167797088537     -0.12287535749797407                 2.300754
                    178.0                  37.0944        1.536279990634092      0.04771732229184833                 2.408332
                    179.0                  37.1952       1.6689235546997625      0.19460318427983314                 2.431463
                    180.0                   37.296       1.7816005198385896         0.17847712077681                 2.511131
                    181.0                  37.3968       1.7142800714342417      0.46140583299179916                 2.508914
                    182.0       37.497600000000006       1.6756243084102032       0.5961519065710523                 2.796324
                    183.0                  37.5984       1.9450239428300942       0.6205680785566936                 1.920754
                    184.0       37.699200000000005                      nan                      nan                      nan
                    185.0                     37.8       1.8120306335785834      0.35929892632794924                 2.488725
                    186.0       37.900800000000004       1.8138138408481523       0.5379614989889111                 2.430243
                    187.0       38.001599999999996       1.7856152420647156       0.5917023930236008                 2.324153
                    188.0                  38.1024       2.5373854113928975       0.1935979986692209                 2.005011
                    189.0                  38.2032        2.118731471211694       0.5731441345140326                 2.197548
                    190.0                   38.304        2.161237075582994       0.4597789991415273                 2.681176
                    191.0                  38.4048       2.2921841535075935      0.23556255028684903                 2.375825
                    192.0                  38.5056        2.241206294480528       0.6691257763173903                 2.458154
                    193.0                  38.6064                      nan                      nan                      nan
                    194.0                  38.7072        1.889636501769874      0.25334832059449053                 2.152316
                    195.0                   38.808        1.693768440752211        0.204766069944897                 1.690019
                    196.0                  38.9088       2.3981340892004672       0.7774274880551745                 1.927792
                    197.0       39.009600000000006        2.217325189030708       0.7163954593128607                  1.60322
                    198.0                  39.1104       2.7899082867316602       0.5881775608853124                 1.722729
                    199.0       39.211200000000005        2.171554304399363       1.2395185273466451                 1.520032
                    200.0                   39.312        2.457067217092846       1.0702551599269259                 1.312872
                    201.0       39.412800000000004       1.7767497626921211       0.9738372878558992                 1.510303
                    202.0       39.513600000000004                      nan                      nan                      nan
                    203.0                  39.6144                      nan                      nan                      nan
                    204.0                  39.7152                      nan                      nan                      nan
                    205.0                   39.816                      nan                      nan                      nan
                    206.0                  39.9168                      nan                      nan                      nan
                    207.0                  40.0176                      nan                      nan                      nan
