#                  frames                    t (s)                  x (pxl)                  y (pxl)                        f
                    206.0       26.204400000000003     -0.14980296319613906       0.5415851536135713                 0.846601
                    207.0                  26.3088       0.0938578802585808      0.07223999098382734                 0.880801
                    208.0       26.413200000000003      0.23265874949364235      0.24702193623160443                 0.869832
                    209.0       26.517600000000005                      nan                      nan                      nan
                    210.0       26.622000000000003      0.25971700876644044      0.09276141253832618                 0.748861
                    211.0                  26.7264     -0.13213815300517706       0.1759084332362551                 0.816291
                    212.0       26.830800000000004      0.28704115562288995      0.12733744272642689                 0.976225
                    213.0       26.935200000000002    -0.005416084604999732       0.6308964953272962                 0.685753
                    214.0       27.039600000000004                      nan                      nan                      nan
                    215.0       27.144000000000002      -0.3637886440323773      0.07451128585596474                 1.101185
                    216.0                  27.2484      -0.1521836530199207      0.13250911215676542                 0.784422
                    217.0       27.352800000000002      0.40780886956373485     -0.23315040693220265                 1.015285
                    218.0       27.457200000000004                      nan                      nan                      nan
                    219.0       27.561600000000002     -0.21102694398410235       0.0447468052733076                 0.774617
                    220.0                   27.666      0.12739573699083612     -0.12553258792133318                 1.024076
                    221.0       27.770400000000002      0.08987624692120726       0.2426027214648927                 1.008839
                    222.0                  27.8748     -0.08173917209766533     -0.05463188554441338                 1.146395
                    223.0       27.979200000000002                      nan                      nan                      nan
                    224.0                  28.0836     -0.40331561798815174     -0.20481771910216265                 0.724881
                    225.0       28.188000000000002      -0.0776689157106251      0.07583675863473427                 1.334563
                    226.0                  28.2924      0.24222015182105783       0.1593753906663189                 0.895367
                    227.0       28.396800000000002     -0.03357285614495833     -0.03789401230601358                 1.166526
                    228.0                  28.5012      0.35591051206707436      0.25154474681098765                 1.285306
                    229.0       28.605600000000003    -0.049099689208663984      0.23526332572467057                 1.127958
                    230.0                    28.71     -0.11063744135049072       0.1210724535573657                    1.087
                    231.0       28.814400000000003      0.31094170266593685      0.10830789107533262                 1.434617
                    232.0                  28.9188       0.9020439736261959       0.2802843104548739                  1.50896
                    233.0       29.023200000000003      0.13123426438321428       0.5286901718565807                 1.286337
                    234.0                  29.1276     -0.07265211112005221      0.17750541502744085                 1.378452
                    235.0       29.232000000000003     -0.11572894208106344      0.23084009504298453                 1.341021
                    236.0                  29.3364       0.2726591591908176       0.0936441312888572                  1.45159
                    237.0       29.440800000000003     -0.16382604841242618     -0.11496211964710613                 1.003495
                    238.0                  29.5452       0.4191583143972373      0.32764790785841685                  1.08006
                    239.0       29.649600000000003      -0.3056290112507779     -0.20413662429535034                 0.863424
                    240.0                   29.754       0.3309910131395233       -0.266351730526117                 1.119682
                    241.0       29.858400000000003     -0.08822101116348949       0.1517995515438679                 1.512068
                    242.0                  29.9628     -0.09085925316128801       0.3365311443566771                  0.53193
                    243.0       30.067200000000003      -0.2359367688106217       0.4123855630942339                 1.061709
                    244.0                  30.1716     -0.27108641045400217     -0.12111500569397804                 0.993758
                    245.0       30.276000000000003      -0.3549431631470181     -0.07536973016977049                 1.178619
                    246.0                  30.3804      0.18084569805402295      0.18571486159487477                 1.268345
                    247.0       30.484800000000003     -0.06526132509189055      -0.3249161051504531                 0.631432
                    248.0       30.589200000000005                      nan                      nan                      nan
                    249.0       30.693600000000004      0.20986836010610965      0.08645036320087049                  1.36255
                    250.0       30.798000000000002     -0.09489340067100047     -0.10669801652838151                 1.485203
                    251.0       30.902400000000004    -0.020054512216756096     -0.06911661134002568                 1.537342
                    252.0       31.006800000000002     -0.11896966649474122      -0.2873988331313601                 1.476846
                    253.0       31.111200000000004       0.3021982408159937      0.26464847567152616                 1.425699
                    254.0       31.215600000000002      -0.1787320541414739    -0.027926490998788422                 1.220702
                    255.0       31.320000000000004      0.32211876921964516     0.047686134021803696                 1.510856
                    256.0       31.424400000000002     -0.08131058403670406     -0.08382433006818432                 1.169804
                    257.0                  31.5288     0.024221593542189952     -0.23756997641125546                 0.900564
                    258.0       31.633200000000002     -0.31087356325923804    0.0030065386794898633                 1.085669
                    259.0                  31.7376   -0.0023238920830961803     -0.15378912774692843                 1.763216
                    260.0       31.842000000000002     -0.09047326124344679       0.0649693458572559                 1.653222
                    261.0                  31.9464     -0.22229591419684647     -0.08828750300219528                 1.554502
                    262.0                  32.0508      0.18515694549915834    -0.031690335515185804                 1.925925
                    263.0                  32.1552      -0.2283063115274462      0.27549890367613417                 1.520873
                    264.0       32.259600000000006    -0.007702752613840803    -0.003189599844655681                 1.206701
                    265.0       32.364000000000004      0.09823105063138374      0.05846862860060727                 1.767411
                    266.0                  32.4684      -0.2509543340640895       0.3077786093776995                 1.587265
                    267.0                  32.5728      -0.1396120361888971    -0.010256941050050584                 2.050434
                    268.0                  32.6772      0.11932560501719598       0.1794740416376427                 1.704252
                    269.0                  32.7816      0.24305100428480964       0.1881048669786789                 1.625548
                    270.0                   32.886    -0.006750627744994917     -0.03445249219697862                 1.463153
                    271.0                  32.9904      0.11109517310159363     -0.13809363767417884                 1.841152
                    272.0       33.094800000000006      0.09014324794080193    -0.008383837080478698                 2.091239
                    273.0       33.199200000000005      0.10644609554160243     -0.04377896715658772                 2.052769
                    274.0                  33.3036     0.028432587417220417     -0.04795738493436218                 1.794968
                    275.0                   33.408    -0.003524657503217163      0.22961717747561888                 1.942567
                    276.0                  33.5124     -0.19551502961988168      0.12108405412836284                 1.466343
                    277.0                  33.6168     0.013497958593441235       0.1089597822682624                 1.369525
                    278.0                  33.7212      -0.5237658538953887     0.004105162227039008                 1.741372
                    279.0                  33.8256     0.024789007409533347       0.1819762348295281                  1.64025
                    280.0        33.93000000000001      0.04414736450310622      0.20429780499466477                 2.052014
                    281.0       34.034400000000005      0.04224560338060619     -0.04406044767599462                 1.852539
                    282.0                  34.1388      -0.2063776330884616      0.03322503916754881                  1.80928
                    283.0                  34.2432     0.020536672602280752     -0.06463515655516758                 2.542993
                    284.0                  34.3476                      nan                      nan                      nan
                    285.0                   34.452     0.027731068666285604    -0.033681338127148894                 1.793602
                    286.0       34.556400000000004       0.2354002370124683    -0.004739475567702829                 2.118505
                    287.0                  34.6608      0.04847605677570989     0.058433041778177444                 1.982181
                    288.0        34.76520000000001      0.08467138325266696    0.0003628819520978474                 1.915072
                    289.0       34.869600000000005      -0.1121927975180983      0.05159523504517879                 1.896891
                    290.0       34.974000000000004      0.16608421718583508     0.027288575721672773                 1.709362
                    291.0                  35.0784     -0.13870086607366375      0.22959607009223704                 2.185436
                    292.0                  35.1828     0.026471925512467152     -0.06690290828145459                 2.553221
                    293.0                  35.2872     0.036420481175599886       0.1819448815383741                 2.342485
                    294.0       35.391600000000004    -0.030914227791649304     -0.02674217042769346                  2.19426
                    295.0                   35.496     -0.04846426092353323      0.18373356562533805                 2.215965
                    296.0        35.60040000000001     0.028199605435192693      0.29678221946929595                 2.293904
                    297.0       35.704800000000006     -0.13984597305942717    -0.046136414339659204                 2.228664
                    298.0       35.809200000000004     -0.03019161053383732     0.025099681490402564                 2.415046
                    299.0                  35.9136      0.02180732209177954       0.2320264652952016                 2.000363
                    300.0                   36.018      0.06936516330506604      0.38524612000087455                 1.899134
                    301.0                  36.1224     0.043899966619814934     -0.15349283125266586                 2.187931
                    302.0                  36.2268     -0.07310486742674766      0.03156704825324616                 2.195578
                    303.0                  36.3312                      nan                      nan                      nan
                    304.0                  36.4356       0.1432527093948681    0.0005883512845498012                 2.814731
                    305.0       36.540000000000006    0.0021570392108831854      0.20753717574444416                 2.811947
                    306.0       36.644400000000005     -0.07922196133285209     -0.05798655810151903                 1.909306
                    307.0                  36.7488     -0.10033549515742814    -0.047275522743597614                 2.713889
                    308.0                  36.8532    -0.020254832158181788     -0.08806684342095035                 2.793632
                    309.0                  36.9576     0.044914555108832285     -0.15846939353982492                 3.026106
                    310.0       37.062000000000005      0.13055454009559037      0.04175222501437949                 3.034349
                    311.0                  37.1664     -0.09283185895491126     -0.02010926336288279                 2.679045
                    312.0                  37.2708     0.015378952426371204      -0.1071640544786354                 3.063795
                    313.0                  37.3752    -0.043620597391812344     -0.10541737727575805                 2.689574
                    314.0       37.479600000000005     -0.05443727309295453     -0.17130263455518574                 3.241365
                    315.0                   37.584     -0.07069112952722142     -0.08105959519472707                 3.224044
                    316.0                  37.6884     -0.10087295013503422    -0.015739773503287778                 3.058427
                    317.0                  37.7928     0.014982045636611874       0.1089028029012137                 2.786373
                    318.0       37.897200000000005      -0.1470987243832978     -0.08137784243552057                  3.04957
                    319.0                  38.0016     -0.10389950932169095      -0.0984679875508054                 2.742552
                    320.0                   38.106     -0.02066619494701815     -0.05637025028137577                 2.853368
                    321.0                  38.2104       0.0723550051319261      -0.2516579973416434                 2.663418
                    322.0       38.314800000000005    -0.006334136986053479     -0.03439851583451607                 2.924745
                    323.0       38.419200000000004      -0.3322606613484005     -0.16896352120396507                 2.180954
                    324.0                  38.5236     -0.11582409175316945      -0.1048424929304746                 2.496219
                    325.0                   38.628     -0.09570065774831762    -0.055694392215881544                 3.187281
                    326.0       38.732400000000005     -0.11053138855306002     -0.12442747280882316                 2.763326
                    327.0       38.836800000000004     -0.08946355964072941     -0.07999231939489115                 3.363092
                    328.0                  38.9412      0.04391445243179732     -0.01882223728292961                 3.347171
                    329.0                  39.0456     -0.19617487250668095     -0.08205274566765267                 3.375811
                    330.0       39.150000000000006     -0.11905987324595863    -0.023392560234782932                  3.40504
                    331.0       39.254400000000004    -0.007278663879705889     -0.23967287615979066                 2.933448
                    332.0                  39.3588      0.10924552023433749     -0.04811181776442104                 3.603338
                    333.0                  39.4632     -0.11070562107151682     -0.16371527712555567                 3.047621
                    334.0       39.567600000000006     -0.16344458508485393    -0.055477784232398686                 3.115392
                    335.0       39.672000000000004      0.11941940585521284    -0.017444807600855896                 2.761792
                    336.0                  39.7764      0.16797338076556226     -0.02141519113440512                 2.668302
                    337.0                  39.8808      0.08062650664074557     0.036719569221368174                 3.202013
                    338.0       39.985200000000006     -0.03138058437557721     -0.14117422013641104                   2.9643
                    339.0       40.089600000000004      0.04045628907968231     -0.18726137445489474                 2.842182
                    340.0                   40.194      -0.0695595342427212     -0.12776818880565063                 2.775623
                    341.0                  40.2984      0.07470556994015772     -0.05211075133186293                  2.33947
                    342.0                  40.4028      0.04836425688106734     -0.15111055955049923                 2.545342
                    343.0       40.507200000000005     0.013834374308990757      -0.1196371900683544                 2.676714
                    344.0                  40.6116      0.11576265249956737     -0.17355054787614396                 3.155507
                    345.0                   40.716    -0.019936409384376384     -0.13357950916289407                 3.736403
                    346.0                  40.8204     -0.07137351421517166     -0.19094527130919797                 3.684747
                    347.0       40.924800000000005     -0.15951068319974426    -0.037920502211565316                 3.649496
                    348.0                  41.0292      -0.2029476789076955     -0.18452728210209574                  3.18163
                    349.0                  41.1336     -0.03259625308155182     -0.17509090393064383                 2.940786
                    350.0                   41.238    -0.007794520585229203    -0.032944522456531095                 2.288919
                    351.0       41.342400000000005                      nan                      nan                      nan
                    352.0                  41.4468    -0.008790177018497498     -0.30727427757302694                 3.210837
                    353.0                  41.5512     -0.08118654309977291      -0.3278014953149462                 3.673263
                    354.0                  41.6556      0.10218236181656247     -0.23462738366487124                 3.947359
                    355.0       41.760000000000005  -0.00017966778895888054      -0.0793383271926468                 3.438567
                    356.0                  41.8644   -0.0018717507133704514     -0.08995744030894046                  2.96883
                    357.0                  41.9688     -0.09256431456249219      -0.2397486430128026                 2.386438
                    358.0        42.07320000000001                      nan                      nan                      nan
                    359.0       42.177600000000005    -0.056716711075473866     -0.17109691755569853                  2.95277
                    360.0       42.282000000000004      0.05253686729623386     -0.18722914164229854                 3.254661
                    361.0                  42.3864      0.01118335965021872     -0.14699366289069174                 3.031848
                    362.0                  42.4908      0.04977077365770884     -0.22624678686831368                 2.593402
