#                 frames                   t (s)                 x (pxl)                 y (pxl)                       f
                    53.0      1.7000000000000006    -0.12541655525926837     0.09823313249584995                1.201373
                    54.0      1.8000000000000003     0.17144809800276273    -0.20736798460552877                1.068447
                    55.0      1.9000000000000061                     nan                     nan                     nan
                    56.0      2.0000000000000004     0.11459334208594103    -0.16866102856868595                1.106435
                    57.0      2.1000000000000063                     nan                     nan                     nan
                    58.0      2.2000000000000006     0.28123800720334535    -0.07989389976579987                1.018976
                    59.0      2.3000000000000003     -0.5386341839714837    -0.09626541830197119                1.115559
                    60.0                     2.4    -0.04594505697280293    -0.45606940248401456                1.114184
                    61.0      2.5000000000000004     -0.4151813255977246     -0.5243206510656236                0.941253
                    62.0                     2.6     -0.5600837685875043     -0.6579920731482557                0.902786
                    63.0      2.7000000000000006     0.05265889078809227    -0.34704061576250256                 1.22355
                    64.0      2.8000000000000003      0.7257202768405073    -0.14340744968388303                1.607368
                    65.0                     2.9   -0.012268360437050882   -0.026217771118680372                1.404517
                    66.0      3.0000000000000004     0.10724300988809177     -0.5217571959347288                1.643612
                    67.0                     3.1      0.5307504785073875     -0.6190632208030283                1.338683
                    68.0      3.2000000000000006       0.474524547357357    -0.30695637466485726                1.321029
                    69.0      3.3000000000000003    -0.14029424473941274    -0.18159068190302224                1.680741
                    70.0                     3.4      0.4052418828370923     -0.6845919168824576                1.319615
                    71.0      3.5000000000000004     0.41574649441209977     -0.3524845871595774                1.876783
                    72.0                     3.6      0.2298548708633454    -0.42306133179551403                1.100486
                    73.0      3.7000000000000006     0.25830400713307056     -0.0502633855317101                1.074214
                    74.0      3.8000000000000003     -0.0044739804133265    -0.40120138906092406                1.505309
                    75.0                     3.9      0.5116613321396631     0.06086507641436967                1.552629
                    76.0                     4.0     0.30990815988018483     0.22801844284242334                1.562411
                    77.0                     4.1     0.20602271322630442    -0.28686836726589576                1.721857
                    78.0       4.200000000000001      0.3070686792850137    -0.13207667207437807                1.583452
                    79.0       4.300000000000001     0.28895054807374965   -0.054912863391728475                1.672878
                    80.0                     4.4     0.14119703868789765    -0.07087965208465966                1.545618
                    81.0                     4.5       0.443799226630398     -0.4342178413043194                1.566588
                    82.0       4.600000000000001      0.4578840420001593    -0.30004106798642866                1.943182
                    83.0       4.700000000000001     0.21199657918950282     0.13167036039314925                1.652756
                    84.0       4.800000000000001    -0.02850495586855875    -0.28818442270777134                1.609034
                    85.0                     4.9    -0.09247824815327249     0.11736095241843489                1.829959
                    86.0                     5.0   -0.014611552331867755       -0.32428524623253                1.295915
                    87.0       5.100000000000001     0.23218769489454422    -0.31561869066062953                 1.26203
                    88.0       5.200000000000001      0.2020686323887741    -0.34227092816094945                1.437673
                    89.0       5.300000000000001   -0.017269968032790572     -0.3518782632288898                 1.56552
                    90.0                     5.4    -0.18508937044641205    0.042808492689702354                  1.5519
                    91.0                     5.5    -0.22794170043838957     -0.3038285259223624                1.671074
                    92.0       5.600000000000001    -0.07185101391782328     0.05972782337102507                1.777975
                    93.0       5.700000000000001    -0.01566301921039502     -0.2695139000887361                1.742447
                    94.0       5.800000000000001     0.03399740969124266    -0.17744240553528845                1.755472
                    95.0                     5.9     0.15686653162002426    -0.08943297095893005                2.267358
                    96.0       6.000000000000002     0.20363436205795804     -0.1278051205094672                1.769266
                    97.0       6.100000000000001     0.39191259062795925      0.2717972628211917                 2.41707
                    98.0       6.200000000000001    0.012290032872054324     -0.2037977172699213                1.915261
                    99.0       6.300000000000001    -0.03193689817590696    -0.19958608930921878                2.000813
                   100.0                     6.4     0.09848508946538327    -0.14505698401034492                 1.96463
                   101.0       6.500000000000002     0.24372415932011177    -0.11889158218403223                1.994899
                   102.0       6.600000000000001     0.26812831191895203    -0.24591200771053254                  1.8421
                   103.0       6.700000000000001     0.12041386202180532   -0.054487512210132955                 1.92974
                   104.0       6.800000000000001      0.2568634430116108       0.285350067774347                2.393334
                   105.0                     6.9    -0.05504826570094608    -0.04849541416306476                2.096592
                   106.0       7.000000000000002     -0.0866077890175433     0.19298994965849026                2.242619
                   107.0       7.100000000000001    -0.01701116111721135    -0.17180121115122768                2.457499
                   108.0       7.200000000000001     -0.2729166141744972    -0.07185567921733667                2.367609
                   109.0       7.300000000000001     0.10024088117453703    -0.34161454058213464                2.075665
                   110.0                     7.4     0.09671066381098342    -0.07204597121366312                2.124056
                   111.0       7.500000000000002   -0.004110308791209827    -0.20645417173561317                  2.7582
                   112.0       7.600000000000001     -0.2459156069483204    -0.09309276853702082                2.119477
                   113.0       7.700000000000006                     nan                     nan                     nan
                   114.0       7.800000000000001     0.14411989658050292     0.11712103882827082                3.003363
                   115.0                     7.9      0.0737509705449683      0.2877178234949239                3.228432
                   116.0       8.000000000000002    -0.07085508618212213     0.16100994973074823                3.418825
                   117.0       8.100000000000001      0.1307713308303057     0.22039950098961025                3.246766
                   118.0       8.200000000000001    -0.07043448441999756     0.16230463083344313                3.111227
                   119.0                     8.3     -0.2667642012222087    0.052839016591519364                2.779695
                   120.0                     8.4    0.018820354128376654      0.1636136857230822                3.244973
                   121.0       8.500000000000002    -0.28072878345880625      0.0637577137645966                2.787474
                   122.0       8.600000000000001    -0.09837084218864471    -0.08871725016624347                2.812909
                   123.0       8.700000000000001    -0.06062287913142912     0.19178680868144907                2.863125
                   124.0                     8.8     0.13047786999922636    -0.17263269496605166                2.736256
                   125.0                     8.9      0.0535697836207322     -0.0344778626452327                3.423516
                   126.0       9.000000000000002    -0.04056589871073793    0.013275472704147522                2.939795
                   127.0       9.100000000000001    -0.09142164531503336     0.03678144152738146                3.044752
                   128.0       9.200000000000001    -0.07700758464378225      0.2849713788112382                3.235427
                   129.0                     9.3    -0.15192843275580656     0.13738476163957725                3.042973
                   130.0                     9.4   -0.057957699988238104       0.458144932111419                2.971011
                   131.0       9.500000000000002     0.06950762512488082    -0.08002285677397623                3.565062
                   132.0       9.600000000000001     0.15264485876949874      0.2227264937900144                3.306865
                   133.0       9.700000000000001    -0.20578210097064806     0.37562037896999134                3.345511
                   134.0                     9.8    -0.15608661712885585     0.18106157406584444                3.408443
                   135.0                     9.9      0.0655432187296815     0.07049533562791585                3.166605
                   136.0      10.000000000000002     0.24065536550324942      0.3304461326190993                3.339902
                   137.0      10.100000000000001      0.1341451114161728     0.11317490972175083                3.837436
                   138.0      10.200000000000006                     nan                     nan                     nan
                   139.0                    10.3    -0.11258507262517242     0.12954689594598073                3.225805
                   140.0                    10.4    -0.02749573639454933        0.38304524821051                 4.06827
                   141.0      10.500000000000002    0.004203637994602102    0.057829180834777366                3.631623
                   142.0      10.600000000000001   -0.011426661315203854     -0.1277500325068212                 3.22961
                   143.0      10.700000000000001   -0.048937875623893345     0.21079638245438903                3.944443
                   144.0                    10.8     -0.2036495313581057      0.1519500311658178                3.922902
                   145.0                    10.9   -0.015564110355297395     0.16985753166693895                3.612137
                   146.0      11.000000000000002   -0.024244660942976448      0.2638710540852447                3.546805
                   147.0      11.100000000000001     0.04816942495170514     0.05964811410531816                3.901182
                   148.0      11.200000000000001   -0.009450075601187637     0.11549627881139576                3.785286
                   149.0                    11.3    -0.08712674915889995    0.021145888610769485                3.878655
                   150.0                    11.4    -0.01357441825674087     0.17386934738466664                3.796981
                   151.0      11.500000000000002     0.02402540082826693     0.35295828855572897                3.756522
                   152.0      11.600000000000001    -0.05070307210360896      0.1659160770812293                3.676808
                   153.0      11.700000000000001    -0.12187633950800669     0.13019476376576788                3.926798
                   154.0                    11.8    -0.07121753826893085      0.3845335428243738                3.697392
                   155.0                    11.9    -0.18191066914894813      0.1928293798623159                4.142178
                   156.0      12.000000000000002    -0.11525064362966081     0.17678843267182778                4.241808
                   157.0      12.100000000000001  -0.0005298474327839753     0.18588056272778086                4.415869
                   158.0      12.200000000000001     0.14310485219252783     0.15165651043197675                4.094162
                   159.0                    12.3     0.05282590022994549     0.20113751787459339                3.934822
                   160.0                    12.4    0.029216474354147398     0.23954428153433527                4.350127
                   161.0      12.500000000000002      0.0314661090788466     0.26495596909351654                4.272841
                   162.0                    12.6   0.0036047598462495417     0.18010407221466568                4.741613
                   163.0      12.700000000000001    -0.20212081170095994      0.0757012313837184                4.758277
                   164.0      12.800000000000002     0.07212610663687916     0.25787148967852963                4.704274
                   165.0                    12.9   -0.022901221511104953     0.07988943459978098                4.548429
                   166.0      13.000000000000002    -0.06348789849061229    0.014924172522557816                3.950156
                   167.0                    13.1    -0.10354844115975079     0.20403879258419522                4.074112
                   168.0      13.200000000000001   0.0029330436429099126       0.068480618624748                4.089379
                   169.0      13.300000000000002      0.0944310278909807     0.28382177098428407                4.373064
                   170.0                    13.4     -0.1501806320655027      0.3267004675985598                 4.60596
                   171.0      13.500000000000002     -0.0731747514704047     0.18516666542121318                4.191905
                   172.0                    13.6   -0.037838264756596615     0.27669508981345303                3.732774
                   173.0      13.700000000000001    -0.03118517423917097     0.32520907003118055                4.222625
                   174.0      13.800000000000002    -0.01065470072197755     0.38226795388076423                4.401763
                   175.0                    13.9    -0.08344764066540462      0.2646625722377803                4.345937
                   176.0      14.000000000000002    0.021728507246917383     0.27325029459731054                4.598474
                   177.0                    14.1    0.022441212700851393       0.237671010190008                4.622508
                   178.0      14.200000000000001    -0.06802900353891558     0.19716182107779956                4.757365
                   179.0      14.300000000000006                     nan                     nan                     nan
                   180.0                    14.4     0.14749775184524824     0.24754453753464334                3.708675
                   181.0      14.500000000000002   -0.034596719540578594     0.10866593485332711                4.505894
                   182.0                    14.6  -0.0019509496355842593      0.3195830858660147                4.349944
                   183.0      14.700000000000001    -0.08584477983764122      0.3371621049520561                4.198631
                   184.0      14.800000000000002    -0.06984945437284754     0.19160590452323004                4.362223
                   185.0                    14.9    -0.06247983056745561      0.2950408484346982                4.405916
                   186.0      15.000000000000002   -0.020124706433423012      0.1066009860340035                4.319284
                   187.0                    15.1    -0.08766789333078467     0.23805528862143002                4.075136
                   188.0      15.200000000000001     0.17087185088338291      0.2778031870774742                4.322563
                   189.0      15.300000000000002    0.013861693627642432     0.07279037378149965                4.537701
                   190.0                    15.4      0.0363045938306614     0.20079082368491957                4.600735
                   191.0      15.500000000000002     0.09246441343815237     0.18049965852237498                4.533035
                   192.0      15.600000000000007                     nan                     nan                     nan
                   193.0      15.700000000000001     0.05719971974148958     0.06141357750330747                4.557719
                   194.0      15.800000000000002     0.05011900851877371      0.1910847198927407                3.876794
                   195.0                    15.9      0.0336671426786446     0.13172288393411738                4.642384
                   196.0                    16.0    -0.10514796578543398    0.009265858463531444                4.564431
                   197.0                    16.1    -0.02591170617898273    -0.04738837883235088                4.395507
                   198.0                    16.2     0.07861118425898246     0.05341297976212497                 3.73727
                   199.0                    16.3     0.05758321418867256    0.029426980685126225                 3.96168
                   200.0                    16.4    -0.07807457568703106     0.14995817569719486                3.914346
                   201.0                    16.5    -0.08562504444783547     0.04976048511257625                4.189098
                   202.0                    16.6     0.09384335175419457      0.0458696623620772                3.906849
                   203.0                    16.7     0.19200144221298646     0.05728333492975776                 3.87795
                   204.0                    16.8    -0.11403141034893828     -0.1024315095300214                4.710677
                   205.0      16.900000000000006                     nan                     nan                     nan
                   206.0                    17.0    0.016870123566905385     0.15994224448603267                4.101815
                   207.0                    17.1    0.015383459908068275     0.14520023457674983                4.273451
                   208.0                    17.2      0.0502527255152579    0.034012172699519595                  4.2815
                   209.0                    17.3     0.08795754791634487     0.03151073297363162                3.320574
                   210.0      17.400000000000006                     nan                     nan                     nan
                   211.0                    17.5      0.1343455487789959  -0.0065303674963497135                4.607891
                   212.0                    17.6     0.14431663179201873   -0.012459173493113915                3.891287
                   213.0                    17.7      0.1581087973612067   -0.031571323265238815                 4.02033
                   214.0                    17.8     -0.1088980908945888    0.010405984187180271                4.184498
                   215.0                    17.9   -0.022109989165311136     0.11726555848087533                4.327807
                   216.0                    18.0     0.11819627440725612     0.09341249873364978                4.262823
