#                 frames                   t (s)                 x (pxl)                 y (pxl)                       f
                   133.0      26.204400000000017                     nan                     nan                     nan
                   134.0      26.308800000000016                     nan                     nan                     nan
                   135.0      26.413200000000014                     nan                     nan                     nan
                   136.0      26.517600000000012                     nan                     nan                     nan
                   137.0       26.62200000000001                     nan                     nan                     nan
                   138.0       26.72640000000001                     nan                     nan                     nan
                   139.0      26.830800000000007                     nan                     nan                     nan
                   140.0      26.935200000000005                     nan                     nan                     nan
                   141.0      27.039600000000004                     nan                     nan                     nan
                   142.0      27.144000000000002    -0.28442870633578915     0.09417636845527079                0.865592
                   143.0      27.248400000000004    -0.36785279913866586     0.11153600465587876                0.736321
                   144.0      27.352800000000002     0.18230548350677483   -0.052551663852835995                0.808882
                   145.0      27.457200000000007                     nan                     nan                     nan
                   146.0      27.561600000000006                     nan                     nan                     nan
                   147.0      27.666000000000004     0.19741715286042538     -0.6268041290677028                0.787961
                   148.0      27.770400000000002      0.2940569003662249    -0.16353254713867585                0.829459
                   149.0                 27.8748    -0.21334352847191354    -0.25009560221917093                0.737279
                   150.0                 27.9792     0.22117820266997923     -0.3683435715101745                0.852127
                   151.0                 28.0836     0.27902859080904663     -0.3461463031836496                0.974623
                   152.0      28.188000000000002    -0.17813964983632286    -0.35216530461420553                 0.98798
                   153.0                 28.2924     -0.0946869408918819    -0.10266920212793412                1.343708
                   154.0                 28.3968    -0.10884617373501426    -0.16644116773426879                1.307833
                   155.0      28.501200000000004  -0.0009969221231687607     -0.1791054639944184                1.331635
                   156.0      28.605600000000003   -0.010372207481396074    -0.11683996512504291                1.306491
                   157.0                   28.71     0.02112477194036262    0.050386318291492635                1.495401
                   158.0                 28.8144    -0.03582169785242511   -0.011832557744159354                 1.61447
                   159.0      28.918800000000005    -0.17164789498686694    -0.08599882280445217                1.291093
                   160.0      29.023200000000003   -0.020829222538416303    -0.08767584811290047                1.465123
                   161.0                 29.1276     -0.0725717496032999     0.07227760195910425                1.443632
                   162.0                  29.232    -0.12013617525584754    0.007830767945759402                1.391776
                   163.0      29.336400000000005    -0.20579144208019906    -0.26233367106732663                1.499226
                   164.0      29.440800000000003     -0.1407102123635484    -0.14837062398815132                1.271524
                   165.0                 29.5452    -0.36592515337062126    -0.09818778456887425                1.583752
                   166.0                 29.6496     -0.2967501570836054    -0.09412976612476115                1.768333
                   167.0      29.754000000000005     -0.3409225129968484   -0.043346566362689846                1.428139
                   168.0      29.858400000000003    -0.15842756144569034    -0.00940017258750659                1.988355
                   169.0                 29.9628    -0.20303333040906268    -0.07755256183532237                1.754034
                   170.0                 30.0672    -0.23862513121543874     0.04015794816000748                1.849159
                   171.0      30.171599999999998    -0.29695607841952637     0.02917993257086213                1.852804
                   172.0      30.276000000000003    -0.17833575042286604     0.05353146241945375                2.001431
                   173.0                 30.3804    -0.06967457881733569     -0.1486414129998549                1.575094
                   174.0                 30.4848    -0.22641951462862575    -0.15995252379918795                1.507102
                   175.0      30.589199999999998     -0.2392412375111084    0.020117662881794042                1.738787
                   176.0      30.693600000000004    -0.27358759494069146     -0.0980410017320232                1.766439
                   177.0      30.798000000000002    -0.08607228055919106     0.01271415970708975                1.978969
                   178.0                 30.9024    -0.19070652376255817     0.03669939965288011                  1.8082
                   179.0                 31.0068    -0.09233734461392552     0.10432454488470515                1.593011
                   180.0      31.111200000000004     -0.2804318619762021    -0.13305870413732684                1.696798
                   181.0      31.215600000000002    -0.14236052175273733       0.157188211177711                 1.68836
                   182.0                   31.32    -0.14664968373819426    -0.11211727711107276                1.798138
                   183.0                 31.4244    -0.29244245839787775     0.11698978007842589                1.864462
                   184.0      31.528800000000004    -0.04255719904471904    -0.14008514165843192                1.769802
                   185.0      31.633200000000002   -0.005334538572818394   -0.054430333320588414                1.809072
                   186.0                 31.7376     0.04902713916266045     0.13404903758982242                1.884645
                   187.0                  31.842     -0.1027464287007798   -0.006890834777800545                1.949887
                   188.0      31.946400000000004      -0.200897304049385     -0.2757631388875712                1.928143
                   189.0                 32.0508    -0.33568339318090973     0.10384876885061485                 1.71477
                   190.0                 32.1552    -0.08180294987881997     0.18259392480152545                1.893933
                   191.0                 32.2596  -0.0008507866781186455    -0.07344785350452822                1.804962
                   192.0      32.364000000000004    -0.18195049436514266   -0.029222981365952288                1.673661
                   193.0                 32.4684    -0.20739539744685168    -0.11190581546809475                2.019555
                   194.0                 32.5728    -0.14938423941760418    0.004022076728325944                2.040034
                   195.0                 32.6772   -0.053378458428425604     -0.1004127197844031                1.755007
                   196.0      32.781600000000005    -0.15388894865603814     0.08157109238086929                1.847491
                   197.0                  32.886    -0.32644851123638746     0.14823833096234287                1.946414
                   198.0                 32.9904    -0.15197240936156156    0.006183435870445675                2.082165
                   199.0                 33.0948     -0.2596621749375519    -0.06458336523844442                1.977599
                   200.0      33.199200000000005     -0.3212737363179365    -0.11772441529649548                1.747566
                   201.0                 33.3036     -0.2988980033955375    0.043872201673618993                1.822536
                   202.0                  33.408    -0.24508460448288974    -0.02162114628227027                1.452289
                   203.0                 33.5124     -0.3800837511744287     0.15662519490475574                1.642924
                   204.0      33.616800000000005    -0.30017240950189933     -0.0328969147344615                1.225785
                   205.0                 33.7212     -0.2795510153856802    -0.07688790341058649                1.801525
                   206.0                 33.8256    -0.19594858168013368    -0.14993120600918122                1.716206
                   207.0                   33.93    -0.37041369026348625    -0.04801058559801895                1.744606
                   208.0      34.034400000000005     -0.0976525124407562    -0.15943581058209608                1.745115
                   209.0                 34.1388    -0.16926302662911782    -0.08617081383959967                1.944956
                   210.0                 34.2432    -0.39962679098367715    -0.22122908221806767                1.591839
                   211.0                 34.3476    -0.28791769577619636    0.033044318704869124                1.914328
                   212.0      34.452000000000005     -0.2211118229163689    -0.13111549160641317                2.159873
                   213.0      34.556400000000004    -0.30448988360413676     0.12042627799051346                1.861693
                   214.0                 34.6608     -0.3409303090891741     0.05916417980190787                1.783915
                   215.0                 34.7652     -0.2713544028231865     -0.1965355120306495                1.664027
                   216.0                 34.8696     -0.4178199249758441    -0.12006011489832732                1.619119
                   217.0      34.974000000000004    -0.14241998888996169    -0.14327608483041784                1.738067
                   218.0                 35.0784     -0.5103347409194168    -0.07757528523021359                1.845835
                   219.0                 35.1828    -0.23959977311701153   -0.049166728666528575                2.262064
                   220.0                 35.2872    -0.33991380469096505    -0.11439691773094957                2.034177
                   221.0      35.391600000000004    -0.22157827918776823    -0.23620757263798275                1.834109
                   222.0                  35.496    -0.21710143334566126    -0.07312045028829416                 2.03967
                   223.0                 35.6004    -0.18067300864899802    -0.04273282352805305                 1.77679
                   224.0                 35.7048     -0.3557631713094607    -0.21408477020952948                1.780332
                   225.0      35.809200000000004    -0.34114425134023973    -0.18836113493117407                1.685228
                   226.0                 35.9136    -0.20909298288848485    -0.39743882457854074                1.760292
                   227.0                  36.018    -0.23256224091432304   -0.001203886533306421                1.931759
                   228.0                 36.1224    -0.24690852287862386    -0.08648316807226006                1.610394
                   229.0      36.226800000000004    -0.21919655671831875    -0.15207715536172844                 1.95032
                   230.0                 36.3312    -0.11236980665294861    -0.18534966286369395                1.749442
                   231.0                 36.4356    -0.30781480616818824     -0.1498695230459602                1.645469
                   232.0                   36.54      -0.382680091378882    -0.24630645523649214                1.762874
                   233.0      36.644400000000005    -0.36350156780536513    -0.34798301626477235                1.859552
                   234.0                 36.7488     -0.3137887110388376     -0.3018146443516271                1.915839
                   235.0                 36.8532    -0.32809804149718846      -0.279192746844266                1.716517
                   236.0                 36.9576     -0.3652347382190212    -0.43332111115983707                 1.70563
                   237.0      37.062000000000005    -0.12274374776681377    -0.18039253186220994                1.922207
                   238.0                 37.1664    -0.02672996425928917    -0.06769138334290188                 2.11876
                   239.0                 37.2708    -0.07623532865803478    -0.31212054826343755                2.119257
                   240.0                 37.3752    -0.26316748679552643     0.07038503382139438                2.140213
                   241.0      37.479600000000005    -0.11063940751822221    -0.07446314411667501                1.792998
                   242.0                  37.584     0.04727146246067554    -0.09498509654593706                2.422087
                   243.0                 37.6884   -0.007349692060407699   -0.052621266870325645                1.921079
                   244.0                 37.7928    -0.28982561061001166    -0.18631618857478294                2.028979
                   245.0      37.897200000000005    -0.24595690162765516    -0.24728584343866303                1.962133
                   246.0                 38.0016    -0.26891178954433664    -0.10149684850169756                1.958117
                   247.0                  38.106     -0.2782140330208317     -0.1345642122657403                2.188246
                   248.0                 38.2104   -0.024969788898142664    -0.07762657255589378                2.109732
                   249.0      38.314800000000005     -0.1675412374746291  -0.0071344183555757355                2.185824
                   250.0      38.419200000000004      -0.376296602921348    -0.14552582664094899                2.089696
                   251.0                 38.5236    -0.24440074329586864     -0.2285394956277853                2.142755
                   252.0                  38.628      -0.203542089195207     -0.0769257369016003                1.854848
                   253.0      38.732400000000005    -0.11812468997804798     -0.1322318021112554                1.931734
                   254.0      38.836800000000004    -0.23609149419820546    -0.04332350908927579                2.158148
                   255.0                 38.9412    -0.20753168449466375    -0.14730778663976818                2.167529
                   256.0                 39.0456     -0.3232056062313036    -0.10201240117869918                2.006585
                   257.0                   39.15    -0.42281507861140294    -0.06675105059256081                2.151072
                   258.0      39.254400000000004     -0.2099083008235699     0.13976952455674926                1.858546
                   259.0                 39.3588     -0.0858852633261662   -0.008621670474905772                2.114725
                   260.0                 39.4632    -0.20821054488169108    -0.10763011194007345                2.324774
                   261.0                 39.5676    -0.13647057065961365    -0.15846857270174453                2.023995
                   262.0      39.672000000000004   -0.020157610216936038    -0.12957789271564693                2.054367
                   263.0                 39.7764     -0.2855368414508707     0.14696557122028453                2.398393
                   264.0                 39.8808     -0.2545955956912161    -0.03516953257861653                2.276059
                   265.0                 39.9852    -0.15095109312376226    -0.07805461298600991                2.445439
                   266.0      40.089600000000004    -0.19703234230020414    -0.05386412567507898                2.822217
                   267.0                  40.194   -0.018597357556066955    -0.02007873663836686                2.330402
                   268.0                 40.2984    -0.37582447176810363    -0.15208049590599945                2.329596
                   269.0                 40.4028    -0.10846387499679666       -0.22390135353864                2.334526
                   270.0      40.507200000000005    -0.14415148285057197    -0.27203086056577785                1.927125
                   271.0                 40.6116     -0.1582026654055482     -0.1454097066348278                2.204638
                   272.0                  40.716     -0.1815382871030887    -0.22484560155639047                2.138463
                   273.0                 40.8204    -0.10934315784199045    -0.21042966204580907                2.178727
                   274.0      40.924800000000005    -0.17521192304091274    -0.15930745032557056                2.689435
                   275.0                 41.0292     -0.3396728742669316     -0.1946976010999543                2.574575
                   276.0                 41.1336     -0.2430857517256971    -0.16889410900676577                2.145981
                   277.0                  41.238    -0.29183576015202783    -0.08548061334550638                2.250972
                   278.0      41.342400000000005     0.06564807714220726     -0.1747359458382597                2.268743
                   279.0                 41.4468    -0.13628896951560657    -0.11424061735645218                2.075736
                   280.0                 41.5512    0.012394734621041589    -0.08224786665870656                2.457042
                   281.0                 41.6556    -0.13945904142680496    -0.16416780795515104                2.461915
                   282.0      41.760000000000005    -0.08387644520731247    -0.19602097419495967                2.175066
                   283.0                 41.8644    -0.23536652768784566    -0.21855692915680053                2.303691
                   284.0                 41.9688     -0.2163530283375232    -0.10472728707946245                2.467632
                   285.0                 42.0732     -0.1090330690742408     0.00790806037739376                2.453913
                   286.0      42.177600000000005    -0.16795075940770032    -0.14436458782565997                2.516261
                   287.0      42.282000000000004     -0.0717558250292389    -0.06530503007375374                2.503018
                   288.0                 42.3864      -0.216838275180084    -0.09329285296570483                2.841632
                   289.0                 42.4908     -0.2745702103251484   -0.013416779023590307                2.455318
                   290.0      42.595200000000006     -0.1819995898927232     -0.2059300774363333                   2.513
                   291.0      42.699600000000004    -0.22451570505974275    -0.08661699680766577                2.699366
                   292.0                  42.804     -0.1264971498072339    -0.06803241830262098                2.493672
                   293.0                 42.9084    -0.08142307295496407     -0.1529365957081936                2.365157
                   294.0      43.012800000000006     0.05068819420106008     -0.1207254473829788                2.408137
                   295.0      43.117200000000004    0.030847603520099225   -0.008537826268030107                2.712401
                   296.0                 43.2216    -0.08312206518508347     -0.1312471094671146                2.596392
