#                  frames                    t (s)                  x (pxl)                  y (pxl)                        f
                     17.0       1.6999999999999993                      nan                      nan                      nan
                     18.0       1.7999999999999994                      nan                      nan                      nan
                     19.0       1.8999999999999995                      nan                      nan                      nan
                     20.0       1.9999999999999996                      nan                      nan                      nan
                     21.0       2.0999999999999996                      nan                      nan                      nan
                     22.0       2.1999999999999997                      nan                      nan                      nan
                     23.0                      2.3                      nan                      nan                      nan
                     24.0                      2.4                      nan                      nan                      nan
                     25.0                      2.5      0.12173598506026381       0.4976711193422606                 0.591916
                     26.0                      2.6      0.08277761521227962     0.028833066479883773                 0.767135
                     27.0                      2.7      -0.3301560777947384     -0.01281343941896998                 0.554542
                     28.0       2.8000000000000003      -0.2969400684173201     -0.02783011185461315                  0.54996
                     29.0       2.9000000000000004     -0.13974206550405727      0.06424220974682998                 0.678949
                     30.0                      3.0     -0.24880037545024408        0.186642172988987                 0.892455
                     31.0                      3.1      -0.3665152243754614      0.10763108782043004                 0.855593
                     32.0                      3.2     -0.37838704290509295      0.23888241842244348                 0.591923
                     33.0       3.3000000000000025                      nan                      nan                      nan
                     34.0       3.4000000000000004     -0.02689007023741885    -0.052332337142014254                 0.785874
                     35.0                      3.5      0.17836426232949554       0.3283184505604567                 0.593616
                     36.0                      3.6      0.05914450805193501      0.09144939835861562                 0.650709
                     37.0                      3.7      -0.4864865424215893      0.05696217834651468                 0.758088
                     38.0       3.8000000000000003      -0.0668245771288751      0.23663904764432528                 0.920876
                     39.0       3.9000000000000004      -0.2799935723805742     -0.14706058108155473                 0.612291
                     40.0                      4.0      -0.3531097808930097      0.06873550638706821                 0.582482
                     41.0       4.1000000000000005     -0.16934978187030797        0.587542626414516                 0.579486
                     42.0                      4.2      0.02570875883842877       0.2742284538615174                 0.645407
                     43.0                      4.3      0.04133085955728283      0.09321716879306476                 1.024777
                     44.0                      4.4     -0.34256192624529813    -0.001163207566277774                 0.745569
                     45.0                      4.5     -0.06795527321937456      -0.1373509161118502                 0.911934
                     46.0       4.6000000000000005      -0.2214645890494424     0.008922523645281136                 0.842182
                     47.0                      4.7    -0.021192512894778477      0.05925179331714531                 1.001971
                     48.0        4.800000000000001      -0.0158826403326357     -0.22099682662302417                 0.642927
                     49.0                      4.9     -0.14564392007720373      0.07519250328615842                 0.884819
                     50.0                      5.0     0.012734980093024595      0.46219077991135815                 0.846599
                     51.0       5.1000000000000005      -0.5207335578881132      0.01673850952285985                 0.780622
                     52.0                      5.2     -0.11808931253343906       0.2105655039476977                 0.536412
                     53.0        5.300000000000001     -0.12544823962538376       -0.142620794083602                 1.306547
                     54.0                      5.4     0.020101051582264995       0.4109118808317562                 1.121328
                     55.0                      5.5     0.010138540297806989      0.15861563554279817                 1.252994
                     56.0       5.6000000000000005     -0.06591864916023256      0.09206920326619847                 1.029781
                     57.0                      5.7       0.2623901937862865     -0.08042478980054332                 1.279608
                     58.0        5.800000000000001       0.2213903497754317       0.5292192694340876                 0.914712
                     59.0                      5.9      0.39756894728640085       0.3022002601571877                 1.259015
                     60.0                      6.0     -0.09179918807787868      0.48458022186100813                 1.150794
                     61.0       6.1000000000000005      0.07534360593688086       0.2498687723875375                 0.926195
                     62.0                      6.2      0.06268850727544513       0.1862146355002171                 1.168634
                     63.0        6.300000000000001    -0.011180470640334124       0.1155128119970083                 1.280212
                     64.0                      6.4     -0.23036212172052814     -0.14908582066717915                 0.846648
                     65.0                      6.5     -0.06385555940970891     0.021392477976467015                 1.122937
                     66.0       6.6000000000000005      0.13542102848043203      0.19648414421122182                 1.370326
                     67.0                      6.7      0.01128912359119048       0.0211381815072931                 0.964536
                     68.0        6.800000000000001      0.07377504243452393      0.15712703190064137                 1.160869
                     69.0                      6.9       0.1251784036318541      0.23136228737010447                 1.008971
                     70.0                      7.0      0.13745195258907897       0.2623609509057214                 1.447229
                     71.0       7.1000000000000005     -0.30893185494561204      0.10458369957705156                 1.283002
                     72.0                      7.2      0.14339123828262826      0.19155319504203905                 1.356988
                     73.0        7.300000000000001       0.1547902734271289       0.2218599369120432                 1.013222
                     74.0                      7.4      0.21399483467434252      0.04211703281698398                 1.020621
                     75.0                      7.5       0.3254524190552626       0.2521548855768348                 0.978004
                     76.0       7.6000000000000005        0.238474064522156       0.2166061366717968                 1.270682
                     77.0                      7.7     -0.12577242186561602      0.12193527915395613                  1.06655
                     78.0        7.800000000000001      0.24100959241856879     -0.04842957224925806                 1.026614
                     79.0                      7.9      0.28106489221921366       0.3884275433273162                 1.236276
                     80.0                      8.0     0.007398541966275144      0.01948356988522433                 1.088654
                     81.0                      8.1      0.17750399340151224   -0.0022774525635318593                 1.009044
                     82.0        8.200000000000001       0.1066636251271276      0.28661710658002326                 1.120103
                     83.0                      8.3      0.17099218760380167      0.19236885034317425                 1.189393
                     84.0                      8.4      0.21446649543926094       0.1403122643311578                 1.423381
                     85.0                      8.5  -1.6094886601064617e-05       0.3909167495506086                 1.416044
                     86.0                      8.6      0.12741283103083983     -0.05188880789026621                  1.20085
                     87.0        8.700000000000001    -0.009985295659643692      0.16992829837511225                 1.165954
                     88.0                      8.8    -0.027711676494067822    -0.016991141404474202                  1.59642
                     89.0                      8.9     0.006063436752418508     -0.22961183153171488                 1.167679
                     90.0                      9.0      0.07752320106059653      0.09287913549994584                 0.938816
                     91.0                      9.1     0.012889017407849875     -0.07245794426603591                 1.177119
                     92.0        9.200000000000001     -0.07495359318970334     -0.19618145653596317                 1.146401
                     93.0                      9.3       0.1099151985237381      0.18110508769853728                 1.324479
                     94.0                      9.4     -0.08055320813609089      0.34100144014118344                 1.092499
                     95.0                      9.5      0.22408270837559752      0.08380424329198732                 1.651248
                     96.0        9.600000000000001      0.15071039368304015      0.07376835241691783                 1.211363
                     97.0        9.700000000000001     0.015557477981422277     -0.23944010188524817                  1.26359
                     98.0                      9.8     -0.08297564483651462      0.06830069377361457                 1.249491
                     99.0                      9.9      0.23670854008063769      0.07674846737745053                 1.491627
                    100.0                     10.0      0.16141599199777312       0.1726482730769032                 1.420353
                    101.0       10.100000000000001     -0.09910830443928677       0.0580718619663675                  1.39522
                    102.0       10.200000000000001      0.04141603993379721      0.03185960980232125                 1.190854
                    103.0                     10.3        0.206813998220815      0.06618856647870117                 1.388068
                    104.0                     10.4      0.18176559792241026      0.12846169967827303                 1.241963
                    105.0                     10.5       0.1567057192201869      -0.0844514496677197                 1.505147
                    106.0       10.600000000000001     -0.15364704902728366     -0.06696598238391625                 1.770279
                    107.0       10.700000000000001      0.26350074929184464      -0.2818373644488824                 1.727585
                    108.0                     10.8      0.06814129732477837     -0.04990284763620094                 1.472842
                    109.0                     10.9      -0.1755526499734838      0.19927684502593382                 1.515007
                    110.0                     11.0      -0.1393577406443237     -0.20277963474234906                 1.600578
                    111.0       11.100000000000001     -0.03281830814605604       0.0678771360799407                 1.409527
                    112.0       11.200000000000001      0.07308639562389554       0.1438352182331808                 1.556398
                    113.0                     11.3    -0.007033818995633226     -0.21032150616198694                 1.457408
                    114.0                     11.4       -0.085358341328922    -0.022488426044925604                 1.562683
                    115.0                     11.5      0.12100953551666199      0.07236622218722619                 2.054591
                    116.0       11.600000000000001      0.24603457378040744     0.026747938405951452                 1.806162
                    117.0       11.700000000000001      0.08916187447935937       0.0959055031331808                 1.749095
                    118.0                     11.8     -0.07924940750963341     -0.12789218867981428                 1.875421
                    119.0                     11.9      0.22506506033511536     -0.17486753307843078                 2.142555
                    120.0                     12.0      0.07727501992369527      -0.1460028122381087                 2.034085
                    121.0       12.100000000000001     -0.04150927416212957      0.09208880433529311                 2.094126
                    122.0       12.200000000000001      -0.1091577816423544     -0.16234032043956237                 1.963715
                    123.0                     12.3      0.10182938885410117     -0.03508014133431617                 2.107698
                    124.0                     12.4      0.08361712428208508     -0.10692665596208771                 2.064432
                    125.0                     12.5     -0.01183854687568793      0.08486701450912365                 1.981647
                    126.0       12.600000000000001      0.08127210333848336      0.05225096728242978                 1.582743
                    127.0       12.700000000000001      0.23264615812041664    -0.021573993448186515                  1.84484
                    128.0                     12.8      0.03380921905473151      -0.1352501842886123                 2.264818
                    129.0                     12.9       0.2016647521310062     0.011914525015896613                 2.070168
                    130.0                     13.0      -0.0739584275039234      0.06711783428203283                 2.078741
                    131.0       13.100000000000001      0.11668841461203132     -0.16582483797064232                  1.54051
                    132.0       13.200000000000001     -0.09677602799627756      0.09400753976146842                 1.507458
                    133.0                     13.3    0.0010133384542764245      0.22877863154008243                 1.817401
                    134.0                     13.4       0.2780136657611823    -0.012969398137242155                 1.713932
                    135.0                     13.5     0.045650395550786343      0.17343218714873948                 1.879742
                    136.0       13.600000000000001      0.04456800285267715      0.05897900470260855                 1.642531
                    137.0       13.700000000000001      0.07901439517872028       0.2871148457287832                 1.407186
                    138.0                     13.8      -0.1709061710265433       0.0683738302501187                 1.696041
                    139.0                     13.9    -0.019532765509334547      0.07503081358510243                 1.690617
                    140.0                     14.0     -0.03890443793779188      0.15705412768740043                 1.475415
                    141.0       14.100000000000001      -0.0831290861063218       0.1957674907984673                  1.63045
                    142.0       14.200000000000001    -0.007173999138099768      -0.3420052588975762                 2.133024
                    143.0                     14.3      0.05181247836233313       0.1729683289553288                  1.97341
                    144.0                     14.4     -0.13096775789181392      0.01402623165294864                 1.694548
                    145.0                     14.5     -0.06701796350594708    -0.004890196551296921                 1.788172
                    146.0       14.600000000000001       0.1409884668647105      0.09567529079130577                 2.263159
                    147.0       14.700000000000001     -0.08203594034191591      0.15547688789484407                 2.032045
                    148.0                     14.8     -0.08080943521649693      0.20641158191745765                 2.072185
                    149.0                     14.9     -0.06187557912824602       0.1944385912037878                  2.05423
                    150.0                     15.0      0.14937271754833398      -0.1631660505463378                 1.740156
                    151.0       15.100000000000001    -0.016604166170890857     0.041609704343871574                 1.816181
                    152.0       15.200000000000001     0.006525716980916169       0.1778467877880744                 1.843151
                    153.0                     15.3     -0.06969490396921549      0.02536037869540704                 2.196484
                    154.0                     15.4      0.19071588259543903     -0.13057197346340893                 1.838041
                    155.0                     15.5    -0.022854388932810513    -0.043915160393975236                 2.080638
                    156.0       15.600000000000001      0.16440767087128888      0.03186169225856284                 1.910338
                    157.0       15.700000000000001      0.14573425307913374       0.1514250372141176                  1.97137
                    158.0                     15.8      0.03412940416852073      0.07696923445409151                 2.292711
                    159.0                     15.9       0.1945831226072036     -0.05177717211400283                 2.290904
                    160.0                     16.0     0.049225351693482744       0.2525073082082574                 1.789204
                    161.0                     16.1     0.049446819408162625       0.1034768403130985                  1.71736
                    162.0                     16.2      -0.0216438696264038      0.13727578848595423                  1.77222
                    163.0                     16.3       0.0903594376746179    -0.002579896213086713                 1.802016
                    164.0       16.400000000000002     -0.07431846953749402     -0.12311765595766239                 1.846294
                    165.0                     16.5     -0.02003789246562955   -0.0005817305776045691                 2.252833
                    166.0                     16.6      0.12273524900838406       0.3702174370747007                 2.054241
                    167.0                     16.7     0.011665756494356909     -0.10629403958948788                 1.935543
                    168.0                     16.8       0.1208967989651083      0.13688202778918698                 2.134288
                    169.0       16.900000000000002     -0.02695733516626741      0.08368651265620496                 2.039733
                    170.0                     17.0       0.1162661969131476    -0.042169228586293926                 1.645447
                    171.0                     17.1      0.11450235539248302     0.006779382876040817                 1.623481
                    172.0                     17.2     -0.12000259834811589      0.17880483475778203                 1.875144
                    173.0                     17.3     0.007853419200588602     0.054559973445195004                 1.898546
