#                frames                  t (s)                x (pxl)                y (pxl)                      f
                   35.0                    1.7    -0.6687957755209541    -0.6500862794152008               1.085724
                   36.0                    1.8     -0.908685288118084    -0.8759001248784641               1.393818
                   37.0     1.9000000000000001    -0.7592145110519507    -0.7600377653122842               1.373375
                   38.0                    2.0   -0.40692572520418435    -0.6855959497050059               1.130498
                   39.0     2.1000000000000005   -0.47623777991360694    -0.7358794871398111               1.297829
                   40.0                    2.2    -0.8943662804565837    -0.8682864416311895               1.399782
                   41.0     2.3000000000000007    -0.6331577639926809    -0.6349023885004588                1.52054
                   42.0     2.4000000000000004    -0.2974176348722203    -0.7041676221619205               1.360485
                   43.0                    2.5    -0.6512129188426083    -0.7985353167311382                1.08707
                   44.0     2.6000000000000005    -0.5865458376201754    -0.5130629156690245               1.207003
                   45.0                    2.7   -0.37472575620310444    -0.6731523245768773               1.370555
                   46.0     2.8000000000000007    -0.5147464804342319    -0.5537930488468725               1.503045
                   47.0     2.9000000000000004    -0.6958557779060895    -0.7222256970515794               1.278817
                   48.0      3.000000000000001    -0.5221358117954786    -0.6328179520485461               1.504432
                   49.0     3.1000000000000005    -0.2062296989192455   -0.49494118579539137               1.245793
                   50.0                    3.2    -0.6426045728423251    -0.7289829071457006               1.548602
                   51.0     3.3000000000000007    -0.5573949411763676    -0.5642969767468005                 1.8875
                   52.0     3.4000000000000004    -0.7712565985753946     -0.528549627145167               1.516781
                   53.0      3.500000000000001    -0.5969742746337056    -0.9133178078845386               1.650969
                   54.0     3.6000000000000005     -0.667123015298531    -0.7863132558671376               1.255184
                   55.0     3.7000000000000064                    nan                    nan                    nan
                   56.0     3.8000000000000007    -0.9377444200455175    -0.8787605403419558               1.904933
                   57.0     3.9000000000000004     -0.647457346212848    -0.6306989777034301               2.163377
                   58.0      4.000000000000001    -0.9133694710744011    -0.7478240393666485               1.608694
                   59.0     4.1000000000000005    -0.5492589806102156    -0.5823663139141189               2.243929
                   60.0                    4.2    -0.7084416053740021    -0.7413043273731701               2.052309
                   61.0      4.300000000000001    -0.7979403434539379    -0.6226944989983645               2.227171
                   62.0                    4.4     -0.745287517583478    -0.8480832516300285               2.149334
                   63.0      4.500000000000001     -0.735863164922574    -0.9260921510897865               2.081345
                   64.0     4.6000000000000005    -0.9319004230100613      -0.83802383070986                2.07726
                   65.0                    4.7    -0.7289644212929757    -0.7037689005505439               2.177003
                   66.0      4.800000000000001     -0.683396705833309    -0.8273615638149509               2.350967
                   67.0                    4.9    -0.7083390065200151     -0.733594422414273                2.25867
                   68.0      5.000000000000001    -0.8096433018129349    -0.5069427156918107                2.37354
                   69.0     5.1000000000000005    -0.8740342465454901    -0.6969324021630824               2.219924
                   70.0                    5.2    -0.8384441033234947     -0.531242961644262               2.782429
                   71.0      5.300000000000001    -0.5528353347890629    -0.6277870923837441               2.882916
                   72.0                    5.4   -0.49672530421929906    -0.6347914597685095               3.265352
                   73.0      5.500000000000001    -0.8484944444733232    -0.8730110292877706               2.700938
                   74.0     5.6000000000000005    -0.8347299767457709    -0.6126210838747728               3.192055
                   75.0                    5.7    -0.9083219546236911    -0.6021704327937982               2.603761
                   76.0      5.800000000000001    -0.6020661731288002    -0.7600185561749612               3.029552
                   77.0                    5.9    -0.7682347867301682    -0.7823232304339413                3.14952
                   78.0      6.000000000000001    -0.8824139686860033     -0.885626266986093               3.281068
                   79.0     6.1000000000000005    -0.6485837435049849    -0.7801600727587719               3.154811
                   80.0                    6.2    -0.8132507274384021    -0.7808955584993984               2.471498
                   81.0                    6.3    -0.5911232527221093    -0.7132256133526406               2.514495
                   82.0      6.400000000000001    -0.6032275884153226    -0.8631862336448519                2.64685
                   83.0      6.500000000000001    -0.7251045885506373    -0.9541265839081745                 2.8565
                   84.0     6.6000000000000005    -1.0152585622703834    -0.9367188341500345               2.739989
                   85.0                    6.7     -0.720788098454706    -0.9463151575178468               2.854295
                   86.0                    6.8    -0.6807843299019949    -0.7936141678858815               2.671607
                   87.0      6.900000000000001    -0.7892675674709049    -0.7614791236574033                3.57099
                   88.0      7.000000000000001    -0.7487550022117156    -0.8835243485706232               3.709105
                   89.0     7.1000000000000005    -0.7925753555068262    -0.9253149534728244               3.341385
                   90.0                    7.2    -0.9052179650942993     -0.970024665743477               2.911008
                   91.0                    7.3     -1.005624580237247    -0.8723844035534665               3.038035
                   92.0      7.400000000000001    -0.8656229355827413    -0.7322057483736139               3.401016
                   93.0      7.500000000000001    -0.8485443050156896    -0.6790991269224739               3.263839
                   94.0     7.6000000000000005    -0.8199723197923295    -0.9433317122528947               3.032801
                   95.0                    7.7    -0.6909702698988303    -0.8390481869947041               3.047406
                   96.0      7.800000000000002    -0.8922349504851403    -0.6712799670915125               3.074239
                   97.0      7.900000000000001    -0.8680662090844479    -0.7167951716291777               3.164888
                   98.0                    8.0    -0.8248939850260986    -0.6692370346297606               3.025069
                   99.0                    8.1    -0.8122452570914395    -0.7442827147095314               2.622951
                  100.0                    8.2    -0.7532128854305062    -0.6755010302209623               2.656709
                  101.0                    8.3    -0.7718903242026603    -0.7629806117180831               3.087417
                  102.0                    8.4    -0.8028633058698569    -0.5859090719646668               3.260345
                  103.0                    8.5    -0.6860692619533056    -0.8517313066077203               3.310064
                  104.0                    8.6    -0.8856050132316609     -0.751297195092825               2.957229
                  105.0                    8.7    -0.8440831861773834    -0.6212565875270489               3.038226
                  106.0                    8.8    -0.8797873194498189    -0.5271362883761141               3.036925
                  107.0                    8.9    -0.5648012016086044    -0.7875993445900731               3.398114
                  108.0                    9.0     -0.839234626036752     -0.773807707934488               3.454755
                  109.0                    9.1    -0.8656724346289785    -0.8144775926877112                2.76915
                  110.0                    9.2    -0.7290456938459677    -0.6297620569496202                2.29884
                  111.0                    9.3    -0.7642308176270866    -0.6151830668094529               2.998284
                  112.0                    9.4    -0.8536338778817371    -0.8183561022524027               3.025509
                  113.0                    9.5    -0.7476125785897145     -0.733805516911853               3.055648
                  114.0                    9.6    -0.8975964491050626     -0.609451740394082               3.785438
                  115.0                    9.7     -0.753966487098493    -0.8034106483797495               3.068805
                  116.0                    9.8    -0.5211464075041721       -0.7762666590875                3.18763
                  117.0                    9.9     -1.039192164638068    -0.7509922428613716                2.59666
                  118.0                   10.0    -0.9490606989805832    -0.9077684479545972               2.862298
                  119.0                   10.1    -0.8791398107183224    -0.7073801946321626               2.746487
                  120.0                   10.2    -0.9035740045998326    -0.8476270981251206               3.149799
                  121.0                   10.3      -0.78855448547079    -0.7599064408981888               2.842305
                  122.0                   10.4    -0.9927579065022135    -1.0467056134964852               2.614159
                  123.0                   10.5    -0.9600736500237914    -0.7997642187720413               2.849289
                  124.0                   10.6    -0.7932299726272964    -0.8846894196126351               2.588622
                  125.0                   10.7    -0.9103502682462122    -0.8898368355798089               2.369396
                  126.0                   10.8    -0.6809791124909456    -0.8286402535470458                2.25954
                  127.0                   10.9    -0.9183702305469258    -0.9158303628836497               2.669122
                  128.0                   11.0    -0.8114752760847375    -0.9113558831904378               2.542156
                  129.0                   11.1    -0.8463514530554299    -0.8038924389318909               3.061676
                  130.0                   11.2    -0.8162049736238277     -0.995625094538289               2.679566
                  131.0                   11.3     -0.809050976398453    -0.9759884747757266               2.796355
                  132.0                   11.4    -0.8536231267108526    -0.9693277251535637               2.609155
                  133.0                   11.5    -0.8081878356565935    -0.8292676733157387               3.118236
                  134.0                   11.6    -0.7239158182056303    -1.0500524372641329               2.838163
                  135.0                   11.7    -0.7543396279983651    -1.0412672318199956               2.908673
                  136.0                   11.8    -0.7156930090977103    -1.0916563550168479               2.830762
                  137.0                   11.9    -0.6839581905430102    -0.9401958918579654               3.018517
                  138.0                   12.0     -0.567586068298945     -1.061100084756372                2.77784
                  139.0                   12.1    -0.7054639438890078    -1.1745877240514613               2.571345
                  140.0                   12.2   -0.43635418963555805    -1.2643775885276418               2.791102
                  141.0                   12.3    -0.6168012077437122     -1.202011129041174               3.037458
                  142.0                   12.4   -0.39249585642327117    -1.0403383441421115               3.017597
                  143.0                   12.5    -0.5942545815234634    -1.3007299967924049               2.673417
                  144.0                   12.6    -0.6041751726011999    -1.0637340293949245               2.056877
                  145.0                   12.7   -0.29205680128133443     -1.185012208593129               2.869933
                  146.0                   12.8    -0.3085165584950615    -1.0571167329051092               2.708718
                  147.0                   12.9     -0.494930816782245     -1.317326387684167               2.883137
                  148.0                   13.0   -0.31967977620960575    -1.4601572836283032               2.148028
                  149.0                   13.1    -0.4167079859249907    -1.4149042658568254               1.752832
                  150.0                   13.2   -0.15635366448770527    -1.2910681465945886                1.96488
                  151.0                   13.3    -0.1420724687559919    -1.2064565797643183               2.572321
                  152.0                   13.4    -0.3893935116635009    -1.4038339320850595               2.403592
                  153.0                   13.5   -0.46139798158074885    -1.2461630547426261               2.447706
                  154.0                   13.6    -0.2604287823743918    -1.3254031060509859               2.102287
                  155.0                   13.7    -0.2635389836575803    -1.1995585551440118               1.838382
                  156.0                   13.8   0.009881554432504047     -1.171361344634352               1.627367
                  157.0                   13.9   -0.08020778845382359    -1.5254391832352894               2.021949
                  158.0                   14.0  -0.025516819678363778    -0.9925231881371777               2.031358
                  159.0                   14.1    -0.1072476200946485    -1.0851214877722994               1.334273
                  160.0                   14.2    0.05642774275362916    -1.3031198031361648               1.738801
                  161.0                   14.3   -0.23507611019191488     -1.365925508178797               1.529172
                  162.0     14.399999999999999    0.43630155415757704    -1.4337461618370226               1.859742
                  163.0     14.500000000000007                    nan                    nan                    nan
                  164.0     14.600000000000001    0.23642963879859952    -1.0178721927601622               1.387165
                  165.0                   14.7  -0.006449130521295365    -1.1141342230403124               1.203695
                  166.0                   14.8    0.11427995219968679    -1.2371232229807583               1.161619
                  167.0     14.899999999999999    0.14003107602064863    -0.9869935163904373               1.318272
                  168.0                   15.0    0.12266269970890575    -1.3110840823335037               1.189717
                  169.0     15.100000000000001     0.5116196948622945    -1.0574648291166953               1.380824
                  170.0                   15.2    0.31275782078286496    -0.9539424359564883               1.233879
                  171.0                   15.3     0.4179365314918935    -1.2747467866417417               1.581445
                  172.0     15.400000000000006                    nan                    nan                    nan
                  173.0                   15.5     0.6388177112508243    -0.7329008303863619               1.872163
                  174.0     15.600000000000001     0.8709657544023957    -0.5382511406925582                2.31087
                  175.0                   15.7       0.75123083615469   -0.21128221515647022               1.710002
                  176.0                   15.8     0.6301834522119408   -0.27554556182169754               1.469158
                  177.0     15.899999999999999     0.7423158406454609  -0.032012328602508466                1.43158
                  178.0     16.000000000000007                    nan                    nan                    nan
                  179.0                   16.1  -0.003890266357955169    -0.3986379708969434               1.423681
                  180.0                   16.2     0.6183974214210907   -0.32719397731722055               1.269774
                  181.0                   16.3     0.6048509416539314  -0.012976476684421978               1.614542
                  182.0                   16.4      0.576454982451022    -0.4209802510370054               1.022842
                  183.0     16.500000000000007                    nan                    nan                    nan
                  184.0                   16.6     0.6813069384763144   -0.13511199257924716               1.534564
                  185.0                   16.7     0.1249766991019626    -0.6968235234077207               1.343661
                  186.0                   16.8     0.5347177094570121   -0.47020992398964057                1.03839
                  187.0     16.900000000000006                    nan                    nan                    nan
                  188.0                   17.0     0.6017018460190389    -1.5745946022761714               0.709737
                  189.0                   17.1    0.11777660848854471     -1.221144373341378               1.031013
                  190.0                   17.2     0.4984017112773022    -1.2899070179098355               0.877476
                  191.0                   17.3     1.2155924811752912    -0.8440026775518008               0.970554
                  192.0     17.400000000000002     0.8691590158954935    -0.9379121172063523               1.025471
                  193.0                   17.5     0.9460195382521647     -1.082702599379952               1.208273
                  194.0                   17.6     1.1651544590414022    -1.2892715298963395               1.700849
                  195.0                   17.7      1.430699468332329    -0.6937132310785901               1.274031
                  196.0                   17.8     1.2600194486575007     -0.814934156961066               0.642786
                  197.0     17.900000000000002     0.8520363872371617    -0.6808834724119929               1.256989
                  198.0                   18.0     0.9295266930906336   0.038723282406032344               0.861787
                  199.0     18.100000000000005                    nan                    nan                    nan
                  200.0                   18.2    0.15231812817824547    -1.0960279568864375               1.100956
                  201.0     18.300000000000008                    nan                    nan                    nan
                  202.0     18.400000000000002     1.6554245114209314    0.08868270198139727               1.494676
                  203.0                   18.5     1.5504370621197108    0.10879169863024774               1.619784
                  204.0     18.600000000000012                    nan                    nan                    nan
                  205.0     18.700000000000006                    nan                    nan                    nan
