#                 frames                   t (s)                 x (pxl)                 y (pxl)                       f
                   192.0      1.7000000000000028     -0.0523083002820558     0.47597829319408286                0.686579
                   193.0      1.8000000000000007    -0.41970448638370084     0.43227557374818204                1.075416
                   194.0      1.9000000000000021     -0.6002200433614293     0.48837522756189644                 1.08903
                   195.0                     2.0    -0.12302549027162016     0.07769721277853792                0.980938
                   196.0      2.1000000000000014    -0.31156782598524113   -0.028752958929414013                1.267579
                   197.0       2.200000000000003     0.30646900734270865    -0.15706015269488194                1.062325
                   198.0      2.3000000000000007    -0.27674012664457365    0.007628420918469492                   1.025
                   199.0       2.400000000000002     -0.5002594223048284    -0.23768748887447522                0.886777
                   200.0       2.500000000000007                     nan                     nan                     nan
                   201.0      2.6000000000000014     -0.5654694236791823     0.47941089625950484                0.978186
                   202.0       2.700000000000003    -0.22332081609516483     0.45307661999601234                1.096539
                   203.0      2.8000000000000007     -0.4587190843932747     0.30802266207948625                1.181879
                   204.0       2.900000000000002    -0.06430884418938365      0.2466131528459403                 1.15209
                   205.0                     3.0    -0.32023400362278887      0.4162477297162933                1.290143
                   206.0      3.1000000000000014     -0.2508869873680445   -0.041358395007324675                1.073864
                   207.0       3.200000000000003    -0.08564995768764722    -0.03434376583672726                1.051637
                   208.0      3.3000000000000007    -0.27661744179483266      0.1924428460736278                1.254359
                   209.0       3.400000000000002     -0.0779041279648085     0.38626818162780663                1.320499
                   210.0                     3.5    -0.36378480328407525      0.2512654235078279                0.950799
                   211.0      3.6000000000000014    -0.49360737590689785      0.6439944739912223                 0.96468
                   212.0       3.700000000000003    -0.42635083509389665     -0.0845780506889624                0.888794
                   213.0      3.8000000000000007      -0.501908626168575      0.3980682472196655                1.349183
                   214.0       3.900000000000002     -0.3587390385488108      0.3359896990505329                 1.37822
                   215.0                     4.0     -0.4951045071190476      0.0664571130082875                 1.54199
                   216.0       4.100000000000001    -0.06544977417205874     0.40032342878340754                1.502891
                   217.0      4.2000000000000135                     nan                     nan                     nan
                   218.0       4.300000000000008                     nan                     nan                     nan
                   219.0       4.400000000000002      0.8945434345656378     0.43085572117180104                2.280405
                   220.0       4.500000000000007                     nan                     nan                     nan
                   221.0       4.600000000000001    -0.03718351218086953     0.23100646865524255                 1.56283
                   222.0       4.700000000000003     0.11872727417816659      1.0310381077357866                1.586439
                   223.0       4.800000000000001     0.33294583186197807      0.9300808980434144                2.056551
                   224.0       4.900000000000002    0.018026787519690307      0.5219739587498762                1.932955
                   225.0                     5.0   -0.026743717062537337     0.39577165011626747                 1.83446
                   226.0       5.100000000000001      0.1013360540346287      0.7546831572718575                1.896201
                   227.0       5.200000000000003     0.33673893262020754      1.0318515014593272                1.731565
                   228.0       5.300000000000001     -0.2845337312103852      0.6639809734174116                1.499631
                   229.0       5.400000000000002    -0.15896747869563585       0.453862693492969                1.620842
                   230.0                     5.5    0.002591234983070956      0.6319835566715567                1.899644
                   231.0       5.600000000000001    -0.14040500677506015      0.6699178666830575                 1.65337
                   232.0       5.700000000000003    -0.49409847878844637      0.5366821222932048                1.480439
                   233.0       5.800000000000001    -0.32033852236843063     0.46413499629970434                1.364178
                   234.0       5.900000000000002    -0.22847288465056576      0.5082234583242485                1.225041
                   235.0                     6.0    -0.16301888840607248      0.5276243789628605                1.370457
                   236.0       6.100000000000001     -0.4307041403050109     0.28703430386042617                1.746428
                   237.0       6.200000000000003    -0.18617989164961343     -0.0780879451364169                1.795456
                   238.0       6.300000000000001    -0.21700063263242694      0.3208925199007402                2.156857
                   239.0       6.400000000000002    -0.20694903536605389     0.32399382114288944                1.656442
                   240.0                     6.5  -0.0032895279703816227     0.29341586227782623                1.661584
                   241.0       6.600000000000001     -0.2193714218142107     0.03879563616280424                1.567264
                   242.0       6.700000000000003     -0.1537062316317797     0.29565278955415514                1.682544
                   243.0       6.800000000000001    -0.35529091409191926      0.1656732934117067                1.856779
                   244.0       6.900000000000002      -0.387195301770565     0.39672081315570135                1.976836
                   245.0                     7.0    -0.04372066000543614    -0.02004009019455537                1.590398
                   246.0       7.100000000000001     -0.3645843834714344     0.38972734722884106                1.847382
                   247.0       7.200000000000003    -0.24495782322061813     0.09002352859524668                1.944376
                   248.0       7.300000000000001    -0.32806125284444854      0.0872374197036351                1.803754
                   249.0       7.400000000000002    -0.39396328091665994     -0.4485412673845764                2.093257
                   250.0                     7.5     -0.1741736400013662    -0.30056107379325636                1.803674
                   251.0       7.600000000000001     -0.5086301856783986     -0.2525166548167568                 1.64394
                   252.0       7.700000000000003     -0.5799401492524963    0.040849521149493306                1.638746
                   253.0       7.800000000000001     -0.1741223685182562     0.20632630313700703                1.872688
                   254.0       7.900000000000002    -0.39283624299706454     0.11503639833110169                1.420675
                   255.0                     8.0     0.07407063282678383    -0.09270354415810471                1.501018
                   256.0       8.100000000000001    -0.25502587613709404     0.31957862743531174                1.937202
                   257.0       8.200000000000003    -0.28439128838377575     0.09680172490593401                1.976373
                   258.0                     8.3     -0.3863967091892272     0.15121394569597296                1.993538
                   259.0       8.400000000000002      -0.600433057388934    -0.04387607468265475                 1.60954
                   260.0                     8.5    -0.14944180728469258     0.03661154899584491                2.107371
                   261.0       8.600000000000001    -0.18203914297172072      0.1421398146269374                1.849049
                   262.0       8.700000000000003     0.08822913867442653     0.07570863819566824                1.816307
                   263.0                     8.8   -0.008003190727930935   -0.009294610846922737                 1.77021
                   264.0       8.900000000000002    -0.11814390295147897    -0.05684931533437214                2.083728
                   265.0                     9.0  -0.0003282049272464553     0.06034067700312859                2.469736
                   266.0       9.100000000000001     -0.2999565321575922    0.046930575618382514                 1.98455
                   267.0       9.200000000000003     -0.2774639741436584      0.2614160452381002                 1.75797
                   268.0                     9.3    -0.27647294295257924      0.3727560837021541                2.059621
                   269.0       9.400000000000002    -0.28877275555723403      0.4634650667352048                2.056321
                   270.0                     9.5    -0.06309240420992158       0.134392454952119                 1.84315
                   271.0       9.600000000000001    0.022024327194253623     0.25617723585707963                2.106737
                   272.0       9.700000000000003    -0.14688283026597848     0.17593329682300796                1.934034
                   273.0                     9.8     -0.1243627198693874     0.19875048560088732                 2.11819
                   274.0       9.900000000000002    0.026274739191520582       0.173417628010893                2.077534
                   275.0                    10.0     0.17621952853827733     0.20692444762657117                 1.90667
                   276.0      10.100000000000001     0.24841929655030068     0.30063873673452335                1.883058
                   277.0      10.200000000000003      0.2568600143815076     -0.2393403989656355                1.813447
                   278.0                    10.3     -0.0721266022454031     0.21601059569824926                2.432317
                   279.0      10.400000000000002     0.16901095266863564     0.27405607375711677                1.772191
                   280.0                    10.5    -0.14908292242311755     0.23949591035880544                2.486249
                   281.0      10.600000000000001    -0.24277534667166376      0.3784851103112776                1.857731
                   282.0      10.700000000000003    -0.28292759611868495     0.04781677332943027                2.770333
                   283.0                    10.8     -0.0720137368308819     0.36599646388387486                2.369284
                   284.0      10.900000000000002    -0.14536868177881868     0.11006757858234381                 2.41461
                   285.0                    11.0    -0.16521748457743662     0.12997849472051762                2.822658
                   286.0      11.100000000000001     0.06514710840236491      0.2630081776572566                2.779423
                   287.0      11.200000000000003      0.2176075653889425     0.17278850377487018                2.329012
                   288.0                    11.3    -0.41218870741442765     0.29380630687830145                2.356417
                   289.0      11.400000000000002   -0.053713511025382216    0.010403001148034767                2.915208
                   290.0                    11.5     -0.2870776141476415    -0.09785915520840506                2.630483
                   291.0      11.600000000000001    -0.21067675887138068      0.2413881057990477                2.387057
                   292.0      11.700000000000003     0.02883294249567328     0.17495646583686184                2.345868
                   293.0                    11.8     -0.2547330324566922     0.15037987479340476                 2.46079
                   294.0      11.900000000000002     -0.1529312944807022     0.21456958398474324                2.424665
                   295.0                    12.0   -0.048299745110004774   -0.015315931792759686                2.630576
                   296.0      12.100000000000001     0.33142842303782005   -0.027772934807115207                2.446633
                   297.0      12.200000000000003    -0.11529851408850801       0.096976956554468                2.723975
                   298.0                    12.3     0.05324022002141434     0.08924876435804727                2.522623
                   299.0      12.400000000000002     -0.0769850127918272     0.27782917157930836                2.728749
                   300.0                    12.5     -0.1597091003322679      0.5223967346648564                2.624147
                   301.0      12.600000000000001     0.10892977722675129      0.4716784706091144                2.660568
                   302.0      12.700000000000003     0.02887466151514473     0.29182502484450723                2.972111
                   303.0                    12.8    -0.10506890517993135      0.3377228437687211                2.473383
                   304.0      12.900000000000002     0.22713624607859048      0.6349174484746252                2.938743
                   305.0                    13.0    -0.10898590734873964      0.5812786854354903                2.566803
                   306.0      13.100000000000001    -0.08643927303623046      0.2739086277099925                2.674407
                   307.0      13.200000000000003    -0.08753911376292497     0.17960917108708535                2.631264
                   308.0                    13.3     0.21016322196458076     0.23773744723032236                2.909268
                   309.0      13.400000000000002     0.12948964051513065     0.10731554247073655                2.873098
                   310.0                    13.5     -0.0194840301858116     0.09102693105382556                2.822339
                   311.0      13.600000000000001     0.23101728824733808      0.2233804682836815                2.654523
                   312.0      13.700000000000003      0.2627129516815288    -0.03217581730418796                2.896915
                   313.0                    13.8      0.2673637688970925      0.4028875283826582                2.689525
                   314.0      13.900000000000002    0.024500472299303785     0.15914811747285673                2.771495
                   315.0                    14.0   -0.040809279505840526      0.1032487304891857                3.319222
                   316.0      14.100000000000001     0.02787023106239564     0.08644221038218201                2.942343
                   317.0      14.200000000000003   -0.037555367314551155     0.24557719381768617                3.225868
                   318.0                    14.3      0.3311712983942797     0.05253236639347614                2.984209
                   319.0      14.400000000000002      0.5854082775581092   -0.013403954785776773                2.757269
                   320.0                    14.5    -0.20414300777501054     0.08087320066991871                2.584217
                   321.0      14.600000000000001    -0.36909913978165815      0.1827539006989551                2.687838
                   322.0      14.700000000000003    -0.46954817515362957     -0.1509510330821359                2.210341
                   323.0      14.800000000000004    -0.47168451125093114     0.07304988712374205                2.088658
                   324.0      14.899999999999999     -0.5649235805849135     0.03716502465036953                2.708682
                   325.0                    15.0     -0.5080674181932456     0.10191089963938052                2.718109
                   326.0      15.100000000000001     -0.4468734006646216     0.11510796096781614                2.665713
                   327.0      15.200000000000003      -0.677908850969667     0.15236011085670065                2.247792
                   328.0      15.300000000000004     -0.7016155664460054     0.31533765834814786                2.607937
                   329.0      15.399999999999999    -0.27335254375443474     0.05285889165626351                2.154686
                   330.0                    15.5     -0.5508705847351563      0.0171814462008833                2.733253
                   331.0      15.600000000000001     -0.2523261598093557   0.0024252471399833636                2.463237
                   332.0      15.700000000000003      -0.399018874955262     0.28008994602720116                2.436626
                   333.0      15.800000000000004    -0.14829064852631355     0.16822934227058026                 2.12659
                   334.0      15.899999999999999     -0.2867094841004964    0.037850005935080505                2.551617
                   335.0                    16.0     -0.5068717516841573     0.17028755389797173                2.249521
                   336.0                    16.1    -0.26824401446504104     0.16986240135362335                2.373057
                   337.0      16.200000000000003     -0.5582778147191524     0.07442705176991585                2.616779
                   338.0      16.300000000000004     -0.2960619944691801  -0.0014634753506549414                2.398445
                   339.0                    16.4    -0.32055228140772185   -0.002540302944929851                2.847379
                   340.0                    16.5     -0.5836539204720564    -0.05089582576973334                2.151238
                   341.0                    16.6    -0.35956685276388933    -0.06710533180649587                2.532654
                   342.0      16.700000000000003     -0.5428529160679909    -0.01494230176138131                 2.69517
                   343.0      16.800000000000004     -0.4419367743794077    -0.04539029070464076                2.376671
                   344.0                    16.9     -0.4275317516291406    -0.10760552819165009                2.111996
                   345.0                    17.0     -0.3420385338525571     0.16592250816148746                2.206415
                   346.0                    17.1     -0.3237791563196377    0.010682178149892335                2.228755
                   347.0      17.200000000000003     -0.4505894549560001     0.10129926568174943                 2.01597
                   348.0      17.300000000000004    -0.24819190651402068    -0.09515374325594339                2.132501
                   349.0                    17.4     -0.0910019516992704     -0.2237886055186205                2.643182
                   350.0                    17.5    -0.23567200730362947    -0.13151582416122715                2.549158
                   351.0                    17.6     -0.5191344734927018     0.04965738714500853                2.209301
                   352.0      17.700000000000003    -0.15187173780445726    -0.14543247863942463                2.392225
                   353.0      17.800000000000004     -0.2876895406408289    -0.09575106342507467                2.098442
                   354.0                    17.9    -0.41577923280366613    -0.11198231265707909                2.016454
                   355.0                    18.0     -0.4005430470717931   -0.011305060184909843                2.103405
