#                 frames                   t (s)                 x (pxl)                 y (pxl)                       f
                    46.0                 21.5712                     nan                     nan                     nan
                    47.0                  21.672     -0.9348018903461621     -0.1949458527065309                0.842472
                    48.0                 21.7728     -1.1876537701579455      0.5865221010654773                0.874422
                    49.0                 21.8736     -0.8817405845621733      0.7823507970848496                1.006263
                    50.0                 21.9744     -0.8306580064132999     0.22116867579297328                1.144185
                    51.0      22.075200000000002     -1.2776457950296254     0.46504765122314695                 0.91347
                    52.0      22.176000000000002     -0.4424522266135939      0.2609357636308619                1.303612
                    53.0                 22.2768     -0.4440560408331796      0.2708568290952831                1.423802
                    54.0                 22.3776     -0.5037187471809751      0.4483220392077242                1.057778
                    55.0                 22.4784     -0.5135391923586687     0.18942549157043082                1.280296
                    56.0                 22.5792                     nan                     nan                     nan
                    57.0                   22.68     -0.6826207604234031    -0.06784651497860414                1.494003
                    58.0                 22.7808     -0.1938413478066185      -0.504939231618896                1.267554
                    59.0                 22.8816     -0.6075268932784528     -0.1366446853483123                 1.35545
                    60.0                 22.9824     -0.9265024161011639     0.18648132085514255                1.139141
                    61.0      23.083199999999998     -0.1951572577980139     -0.2561744006943945                1.375811
                    62.0                  23.184    -0.47287099412496214     -0.1284516857047308                 1.57838
                    63.0                 23.2848     -0.6074603438385854    -0.08162924180585385                1.456594
                    64.0                 23.3856     -0.8552822761415616    -0.41300180080645277                1.499245
                    65.0                 23.4864     -0.6463603506961926    -0.10428331791759768                1.456466
                    66.0                 23.5872     -0.7731661161131959   -0.026510539472927197                1.588525
                    67.0      23.688000000000002    -0.25494427140228204      0.4260722351853884                1.297604
                    68.0      23.788800000000002     -0.4249158342892157    -0.10618687755084535                1.679392
                    69.0                 23.8896     -0.6914834397404689    0.027363548524788894                1.732129
                    70.0                 23.9904     -0.8497283822374802    -0.09928357032167764                1.714414
                    71.0                 24.0912     -0.7840829312442037     0.03804640503653664                1.379202
                    72.0                  24.192    -0.37385770784466166    -0.07271896562058615                2.145831
                    73.0                 24.2928     -0.5473447534843291     -0.0433960101040973                2.179055
                    74.0                 24.3936     -0.5752735335158141    -0.13299747092898273                1.646509
                    75.0                 24.4944     -0.5095123433170831        0.33277748847592                 2.02012
                    76.0                 24.5952     -0.5632117897561888    0.061824556915611034                1.843009
                    77.0      24.695999999999998     -0.8536737756847999    -0.03926217040010363                 1.44539
                    78.0                 24.7968     -0.7362700626470683   -0.034156608242086495                1.491251
                    79.0                 24.8976     -0.7780510975514652    -0.26629928224736654                1.254731
                    80.0                 24.9984     -0.8877728033066306    -0.10862526328995104                1.584539
                    81.0                 25.0992    -0.20118085885226528    -0.06611255645589742                1.303865
                    82.0                    25.2     -0.6845144034262645     -0.2597444443295559                1.307801
                    83.0      25.300800000000002    -0.12795450897763835      0.2682757627301076                1.050903
                    84.0      25.401600000000002                     nan                     nan                     nan
                    85.0                 25.5024     0.28004696502003945     0.09140917953043348                1.817879
                    86.0                 25.6032                     nan                     nan                     nan
                    87.0                  25.704      0.3772933014518596    -0.34652654727385623                1.842491
                    88.0                 25.8048                     nan                     nan                     nan
                    89.0                 25.9056      0.6909067383113187    -0.09432635260067154                 2.74759
                    90.0                 26.0064      0.4797937750616404    -0.06813512903369712                2.101104
                    91.0                 26.1072        0.60871396960398    -0.22634801094968587                1.869739
                    92.0                  26.208     0.03530722587123686     -0.3706011662524209                 1.53867
                    93.0      26.308799999999998     0.04769978627760034     -0.5180595315511455                1.541058
                    94.0                 26.4096      0.5400313886353211    -0.21015327858138383                2.125243
                    95.0                 26.5104                     nan                     nan                     nan
                    96.0                 26.6112      0.5774098577831337      0.5191008546850565                3.474219
                    97.0                  26.712      0.6965068610596477       0.418001233456529                3.419638
                    98.0                 26.8128      0.5474054678330877    -0.22969338620608937                3.424354
                    99.0      26.913600000000002       0.449126151873316    0.005904200359393985                3.612363
                   100.0      27.014400000000002      0.5113904724078581     0.07958297339729827                 3.23429
                   101.0                 27.1152       0.421940528470084     -0.4504748699759812                3.016123
                   102.0                  27.216      0.8783498400537255     -0.9209911564451281                3.513932
                   103.0                 27.3168                     nan                     nan                     nan
                   104.0                 27.4176       2.092692347202381       -1.06988756771121                2.147243
                   105.0                 27.5184                     nan                     nan                     nan
                   106.0                 27.6192      1.2948677239308284     -0.6845707915872157                2.723576
                   107.0                   27.72      1.1665876303525649     -0.9189672929018691                2.481785
                   108.0                 27.8208      1.3944995178497546     -0.6539215121422737                2.253776
                   109.0                 27.9216                     nan                     nan                     nan
                   110.0                 28.0224     0.33734919029308336     -0.2004682377370992                 2.79124
                   111.0                 28.1232     0.34644031919024887    -0.05236456328106705                2.298073
                   112.0                  28.224     0.32462340124539996    -0.08350158665178212                2.276891
                   113.0                 28.3248     0.12019442222394122    -0.17799542169537014                2.243591
                   114.0                 28.4256     0.32928182069033923     0.16783415710401028                2.208391
                   115.0      28.526400000000002    0.023815182844732417    0.031229002924920164                2.499176
                   116.0      28.627200000000002     0.10444892955034021    -0.11224415805378099                2.598242
                   117.0                  28.728     -0.6406299279770888     -0.2265099427604008                2.168623
                   118.0                 28.8288     -0.2654411425246887    -0.14905300510634695                2.297121
                   119.0                 28.9296    -0.36146624372774167   -0.045189424632052666                1.990752
                   120.0                 29.0304    -0.25029944701986595     0.15346562188253932                 2.61224
                   121.0                 29.1312      0.1634156248151417      0.0237390333874734                2.492933
                   122.0                  29.232    -0.05933972062987924     0.12591069560692028                2.370271
                   123.0                 29.3328    -0.25390979760715543   -0.015329005430192832                 2.43905
                   124.0                 29.4336     0.12845273772271024     -0.2464778751788762                3.172661
                   125.0      29.534399999999998    -0.11480934006805248    -0.07514748827124422                3.096357
                   126.0                 29.6352    -0.15086992922642428     0.18232859385980218                3.460251
                   127.0                  29.736     -0.0332826681226898    -0.18495998856841786                3.276142
                   128.0                 29.8368   -0.038048048060112596    -0.13447340144814626                2.999978
                   129.0                 29.9376    -0.36448354652461556     -0.1317112297960264                3.663295
                   130.0                 30.0384    -0.03991944450898768    0.042438295189827946                3.034273
                   131.0      30.139200000000002    0.027694717138057476    -0.33208687405084736                3.366531
                   132.0      30.240000000000002     -0.2603309983652788    -0.07171692980077136                3.141073
                   133.0                 30.3408     -0.0364538900067993    -0.42168591071628214                3.093926
                   134.0                 30.4416    -0.20505740407029152    -0.21263286675509724                2.888247
                   135.0                 30.5424    -0.06352704048156715     -0.3130410813714406                2.983941
                   136.0                 30.6432    -0.47254527656330214   -0.048638961023327335                2.922265
                   137.0                  30.744    -0.23947804219352814     -0.1272391257128529                2.656393
                   138.0                 30.8448    -0.34500150168442345      -0.348463091697715                2.370292
                   139.0                 30.9456     -0.3621074627089259    -0.20291693784461412                2.869758
                   140.0                 31.0464     -0.3631344826666627     -0.1546941653506329                2.723212
                   141.0      31.147199999999998   -0.011746518128777868   -0.054347512696326566                3.067678
                   142.0                  31.248      0.1832206576592202    -0.20248346728618447                2.949802
                   143.0                 31.3488     -0.4312342857046832   -0.060277311949451046                3.341885
                   144.0                 31.4496    -0.19196458314118847   -0.016865018700006798                3.021893
                   145.0                 31.5504    -0.30569083779756656     -0.2381458043408619                2.981845
                   146.0                 31.6512    -0.36937126874840415    -0.18205153409052016                3.435031
                   147.0      31.752000000000002   0.0008728119510093349    -0.03424826693093076                3.825555
                   148.0      31.852800000000002     0.09318767298697522    0.029541563010129786                3.483475
                   149.0                 31.9536    -0.16145919600497521    -0.12277632732977257                3.401121
                   150.0                 32.0544      0.2180687503804679    -0.19536982864676936                3.226259
                   151.0                 32.1552     -0.2274127834094893    -0.14199383355389705                2.657546
                   152.0                  32.256    -0.14749957221202414    -0.22173749600496678                3.193949
                   153.0                 32.3568   -0.011652024368688216    -0.21911899529853235                3.385733
                   154.0                 32.4576    -0.09601900496093264    -0.22827933714522725                3.288459
                   155.0                 32.5584      0.2293868231060316    -0.09563654682079627                3.725913
                   156.0                 32.6592     0.05880476409114764     -0.1262113358837951                3.451672
                   157.0                   32.76    -0.07105884333188973     -0.2070295277472188                3.439252
                   158.0                 32.8608    -0.11091593895834273    -0.19297633963116553                3.753732
                   159.0      32.961600000000004    0.010925743450915681      -0.337039855625632                4.075817
                   160.0                 33.0624    -0.21686997830532295    -0.03298938512844792                3.401566
                   161.0                 33.1632   -0.021074186137552443     -0.2573327781209678                 3.31652
                   162.0      33.263999999999996      0.2273255762491765    -0.06663341887922512                3.854576
                   163.0                 33.3648    -0.27282775878718074    -0.16891060214603937                3.269485
                   164.0      33.465599999999995     0.12924717164837102     -0.0261869033808148                3.356885
                   165.0                 33.5664     -0.1316250867520392   -0.027757732801739148                3.449881
                   166.0                 33.6672     0.12581463681450972    0.001462580115524137                3.616541
                   167.0                  33.768     0.07746066335045271     -0.2697147610548488                 3.41395
                   168.0                 33.8688      0.1585958708086037    0.013061581616736755                3.694737
                   169.0                 33.9696     0.16151031556838324    -0.02751028291696777                3.021518
                   170.0                 34.0704    0.007157936617302298     0.03997655367464445                2.937497
                   171.0                 34.1712    -0.08928390594252496    0.007866449008603407                3.326849
                   172.0      34.272000000000006    -0.17465359934381416    0.035230277296544744                3.048763
                   173.0                 34.3728      0.3554413081498433     0.06405309470408355                3.396663
                   174.0      34.473600000000005       0.322065110032129    -0.16715551100126597                 2.84447
                   175.0                 34.5744    -0.06013142302305852    -0.10559916145390592                2.268157
                   176.0      34.675200000000004     0.16425238540990372  -0.0038144027268658953                3.042269
                   177.0      34.775999999999996      0.3226570338897001    -0.07385398091655655                3.000465
                   178.0                 34.8768     0.21700520924702985     0.08745893522681927                 3.35784
                   179.0      34.977599999999995      0.3851482961917695     0.07073786077893762                2.555864
                   180.0                 35.0784     0.22907648829468602    0.052938162811448766                2.721016
                   181.0                 35.1792      0.1587892710879376    -0.13276847898234734                2.903543
                   182.0                   35.28     0.24331799881540742     -0.1371871637157896                2.826227
                   183.0                 35.3808      0.3073479261183531    -0.19141049668767618                2.715728
                   184.0                 35.4816    -0.05390530724442866     0.18430383609580672                2.034438
                   185.0                 35.5824    -0.13736762815045858     0.19246885256725213                1.925265
                   186.0                 35.6832     -0.1445927052263055    -0.11022104219509588                2.548384
                   187.0                  35.784     0.26461548566511334    -0.26145636324603144                2.530375
                   188.0                 35.8848    -0.23434186849731395     0.03518018279683758                2.260043
                   189.0      35.985600000000005     0.09577569908786596    -0.36640023911095393                3.032937
                   190.0                 36.0864     0.15479410656595333     0.08875602705128204                2.735408
                   191.0      36.187200000000004     0.45027596396538994    -0.29836819919756496                2.526152
                   192.0                  36.288    -0.16764468061796567     0.09801554584971592                 2.39966
                   193.0                 36.3888      0.2635900777131565    -0.21637465082811047                 2.54312
                   194.0      36.489599999999996      0.2131957706066876    -0.10005923875705319                2.775223
                   195.0                 36.5904    0.008459906974664269     0.21839396347028495                2.823359
                   196.0      36.691199999999995     0.20080664237332121     0.11368383950190858                2.844213
                   197.0                  36.792     0.02464637820863727    -0.06002102705462271                2.120537
                   198.0                 36.8928     0.12661033974633093    -0.07548795902388314                2.319158
                   199.0                 36.9936   -0.018899557720083678     0.05507584564002828                2.224694
                   200.0                 37.0944    -0.08586096209010464     0.15857293546285767                 2.70672
                   201.0                 37.1952    -0.16738119464597903   -0.039567255750432156                2.631721
                   202.0                  37.296     -0.2363366977518609   -0.018555028752448174                2.506508
                   203.0                 37.3968    -0.17435611145412733   -0.041680945538338524                2.661722
                   204.0      37.497600000000006     -0.2738861933411847     -0.1345797564486875                 2.81936
                   205.0                 37.5984   -0.020184035524818553     0.20132529368948054                2.801828
                   206.0      37.699200000000005     0.16065539795044015      0.0808954086719117                2.876364
                   207.0                    37.8     -0.3260856468955387     0.11303260604887713                2.488434
                   208.0      37.900800000000004    -0.12657564109677819     0.16967633108687646                 2.34161
                   209.0      38.001599999999996     0.03813640027044379     0.23447933479535554                2.471092
