#                frames                  t (s)                x (pxl)                y (pxl)                      f
                   54.0      7.381799999999933     0.1542365151273799    -0.3847849008358821   0.033321753852884814
                   55.0      7.657199999999936                    nan                    nan                    nan
                   56.0      7.932599999999933     -0.218699656526681   -0.06231287411415565                    0.0
                   57.0      8.207999999999933    -0.2148159559861682   -0.43781501792975064     0.0686770751434101
                   58.0      8.483399999999932   -0.06925050234374908   -0.31934664041541794   0.010824774272456658
                   59.0      8.758799999999933                    nan                    nan                    nan
                   60.0      9.034199999999931  -0.028150458606518214    -0.7559538341374008   0.028840695205004617
                   61.0      9.309599999999932    -0.8118124427015658    -0.6501889930549112   0.026192473219020657
                   62.0      9.584999999999933    -0.4183899959592168   -0.39740568012216215    0.08434542517426524
                   63.0      9.860399999999931    -0.6367610106736379   -0.46158546920403865     0.1078798846621436
                   64.0     10.135799999999932   -0.41591567602354473    -0.6312164497390711     0.2108460935721421
                   65.0     10.411199999999933    -0.8145216225340306    -0.7841010945418248     0.2571528142031933
                   66.0     10.686599999999931    -0.5644935192540146    -0.6179107857203121    0.20282153587528517
                   67.0     10.961999999999932    -0.5735506796995793   -0.42487387507972585     0.3086166689773701
                   68.0     11.237399999999933    -0.7979605548922706    -0.5950215352458343    0.34906992886074595
                   69.0     11.512799999999931    -0.3538080079750472    -0.6032184711945519     0.2872846845311122
                   70.0     11.788199999999932    -0.7752294478367929    -0.7003833468382368     0.3948338752545018
                   71.0     12.063599999999933    -0.6672072328387202    -0.8143833540132732     0.4794312153269296
                   72.0     12.338999999999931   -0.40822217039315944    -0.5267644781965686    0.30632517807067455
                   73.0     12.614399999999932    -0.9964575196292458    -0.7145893663719534    0.31660584286785964
                   74.0     12.889799999999934      -0.76370480476713    -0.8896475106678281    0.38308800931818066
                   75.0     13.165199999999931   -0.39347088615637915    -0.6598638383429147     0.4402097124765303
                   76.0     13.440599999999932    -1.0285385365932456    -0.8444986286766465     0.3623174924408839
                   77.0     13.715999999999934     -0.832035681331817    -0.9513359623577884    0.45248121709611994
                   78.0     13.991399999999931    -0.6735151786563591      -0.92418034014932     0.5211518385893121
                   79.0     14.266799999999932    -0.7468024374685882    -1.0839329001563556     0.4941126019537646
                   80.0      14.54219999999993    -0.5968217438928747     -1.031636616430319    0.47680146413294866
                   81.0     14.817599999999931    -0.8832581895065488    -0.8535069538465763     0.3993825859598391
                   82.0     15.092999999999932    -0.6849139137325579    -0.7484305276240661      0.548931242142959
                   83.0      15.36839999999993    -0.7757244067238815    -0.7386473806519689     0.5667081554777804
                   84.0     15.643799999999931    -0.7081172626940315    -0.6775867228916042     0.5571086845880824
                   85.0     15.919199999999933    -0.7069724835536988    -0.7506942136550094     0.6373509234617112
                   86.0      16.19459999999993    -0.8159808669290811    -0.8490525434694263     0.7036143334236101
                   87.0      16.46999999999993    -0.8454227468461966    -0.8601754888952513     0.6281967544370513
                   88.0     16.745399999999933    -0.6804273577057103    -0.5895702109933438     0.6449568840530524
                   89.0      17.02079999999993    -0.7175946491858411     -0.925661818411669     0.7890134839007019
                   90.0      17.29619999999993    -0.8526008408652217    -0.7939168023760317     0.8332577069379632
                   91.0     17.571599999999933     -0.506596698842273    -0.6444512487759937     0.7674438270946934
                   92.0      17.84699999999993    -0.8334509117526636    -0.7896314785861449     0.8668700975903182
                   93.0      18.12239999999993    -0.6914006128088204    -0.5763698384818667     0.8565044226419862
                   94.0     18.397799999999933    -0.6367153440038038   -0.47094645881813335     0.8927975260710778
                   95.0      18.67319999999993    -0.7468626922823347    -0.4802012335971284     0.7027028109652412
                   96.0     18.948599999999935                    nan                    nan                    nan
                   97.0     19.223999999999933   -0.44484456876948286    -0.5386604880807653      0.673501156427357
                   98.0     19.499399999999934                    nan                    nan                    nan
                   99.0      19.77479999999993    -0.3353347791775292    -0.2688973756848725     0.8702604893513657
                  100.0     20.050199999999933    -0.4604631325031363    -0.3270544539042959     0.8596199779196145
                  101.0     20.325599999999934                    nan                    nan                    nan
                  102.0      20.60099999999993    -0.3051117025550383    -0.5502790576783383     0.8668456182274225
                  103.0     20.876399999999933    -0.1930138535618653    -0.5585717619479738                    1.0
                  104.0     21.151799999999938                    nan                    nan                    nan
                  105.0     21.427199999999935                    nan                    nan                    nan
                  106.0     21.702599999999933   -0.02920254214018314   -0.15264938624625302     0.4477335559323399
                  107.0      21.97799999999993   -0.23975023963608066   0.016968139172462315     0.3307720501755726
                  108.0      22.25339999999993     0.2074272622422484    0.32969050999177796     0.2258392582664026
                  109.0     22.528799999999933   -0.25629047800485694   0.058140346202264936     0.3062263704604412
                  110.0      22.80419999999993   -0.40584964907095866    0.23619657566368346    0.22605712459617391
                  111.0      23.07959999999993   -0.26833280520570213     0.4874876563377768     0.3451765974620241
                  112.0     23.354999999999933                    nan                    nan                    nan
                  113.0      23.63039999999993    -0.8176999854475042     0.5329095926810368     0.1412187740690554
                  114.0      23.90579999999993    -0.6256726452066488   0.043581343031547704    0.08833422608828016
                  115.0      24.18119999999993    -0.4256029720680061     0.5529809935263472     0.1744499542792263
                  116.0      24.45659999999993    -0.6823615248264474     0.4721595035722572    0.11916576111568924
                  117.0      24.73199999999993    -0.5824329767251726     0.6271770929334934     0.1475691658835125
                  118.0     25.007399999999933    -0.8444698048599975     0.7041356864565529     0.1599721914437505
                  119.0      25.28279999999993    -0.4921758148262967     0.3335313074657762    0.09907065211464974
                  120.0      25.55819999999993    -0.3463945815644678     0.7803458787743409    0.21008389522743662
                  121.0     25.833599999999933                    nan                    nan                    nan
                  122.0      26.10899999999993    -0.9432693435989847     0.8031624827995643     0.1517262067825193
                  123.0      26.38439999999993    -0.7457429815255239     0.6969231205272877    0.14734484590352326
                  124.0     26.659799999999933    -0.6839551318798698     0.7362892752311154    0.14711607513028027
                  125.0      26.93519999999993                    nan                    nan                    nan
                  126.0      27.21059999999993    -0.6601108983354891    0.25901382151943153     0.2531820390018562
                  127.0     27.485999999999933    -0.7878204789193859    0.11147990767220506     0.1481330813887632
                  128.0      27.76139999999993    -0.6375468854843547     0.4949295142362615    0.12481604315133071
                  129.0      28.03679999999993    -0.6454856301935621    0.07173804225053004    0.08513010002490216
                  130.0     28.312199999999933    -0.8951152706894021     0.1398818780972988     0.2235564464065519
                  131.0      28.58759999999993    -0.8457898154934895     0.5994492228572597    0.15627269209122965
                  132.0      28.86299999999993    -0.9638099779540283    0.19969616403994905    0.12046183211118255
                  133.0     29.138399999999933    -0.6537907211136513    0.49442596577900133    0.20494233886069926
                  134.0      29.41379999999993    -0.8975863914339328     0.8150441733984195    0.20437775573646047
                  135.0     29.689199999999936                    nan                    nan                    nan
                  136.0     29.964599999999933    -0.2675917731742459      0.427304525839844    0.12734075562452307
                  137.0      30.23999999999993    -0.7941859562720452     0.5269404493642895    0.20181654675858737
                  138.0      30.51539999999993    -0.8069675090536776     0.5134527314887549    0.15416012307333501
                  139.0     30.790799999999933    -0.7998692855091036     0.3568256574066595     0.2402237769832122
                  140.0     31.066199999999938                    nan                    nan                    nan
                  141.0     31.341599999999936                    nan                    nan                    nan
                  142.0     31.616999999999933  -0.051889859930426496   -0.32796757394932285    0.06838176501102351
#------------------------------------------------------------------------------------------------------------------
# experiment: 211021_MKUM0014_DW
# path: /Users/andreapicco/Google Drive/RESEARCH/EvoCellBio/Protein_tracking/Data/Sla1/24_degree/Um/211021_MKUM0014_DW
# file: 12.W2data.txt
# protein: Sla1-GFP
# date: 24/11/21
# notes: the trajectory of the target protein
# t_unit: s
# delta_t: 0.2754
# coord_unit: pxl
# intensity_normalisation: Absolute
# aligned_to: ../../../Fimbrin/24_degree/Um/fim1_um_24deg.txt
# alignment_angle: -1.2493697134243231 rad
# alignment_translation: [-96.68984146  83.55263227] pxl
# alignment_lag: -7.489800000000066 s
