#               frames                 t (s)               x (pxl)               y (pxl)                     f
                  61.0     3.522599999999887   -1.7360486726980042   -0.9691663560961956                   0.0
                  62.0     3.797999999999888    -1.564049156170725   -0.9806932789461769   0.07645020640078462
                  63.0     4.073399999999886   -1.0139054662591462   -0.7055211280961373    0.1099430585969412
                  64.0    4.3487999999998905                   nan                   nan                   nan
                  65.0     4.624199999999888   -1.5074432905580437   -1.2967141342441266   0.14057551192004103
                  66.0     4.899599999999886   -1.4257380085492315   -0.8435251052883643   0.09153609611784365
                  67.0     5.174999999999887    -0.933683814502615   -0.9185477410801752   0.21397371909611285
                  68.0     5.450399999999888   -1.1039359826520183   -1.0476934625170031   0.17876673795680723
                  69.0     5.725799999999889                   nan                   nan                   nan
                  70.0     6.001199999999887   -0.8272909437146581     -1.32640901192417   0.17887975439611734
                  71.0     6.276599999999888   -1.4374481760214337   -0.8380835336612051    0.3049180755771753
                  72.0    6.5519999999998895                   nan                   nan                   nan
                  73.0     6.827399999999887   -1.0467425566840802   -0.8417319640396101    0.4093669246699615
                  74.0     7.102799999999888   -1.1399111543542375   -0.9616016951696054    0.2791014554407003
                  75.0     7.378199999999886   -1.4523560665387691   -1.4502512860831587   0.06206796203314076
                  76.0     7.653599999999887    -1.341764575903042   -1.1085540497408601   0.18001547242260044
                  77.0     7.928999999999888                   nan                   nan                   nan
                  78.0     8.204399999999886   -1.5136478012384629   -1.0053422513586554   0.23938103645238346
                  79.0     8.479799999999887   -1.0669338660072327   -1.2028639505899719    0.3524877223050022
                  80.0     8.755199999999885   -1.3527273422176762   -0.9038428194511425   0.23631931836925332
                  81.0     9.030599999999886   -1.3010465164028204   -1.2815994841548957    0.2328152533872999
                  82.0     9.305999999999887   -0.8285089514955644    -0.923311550526762     0.413981716328182
                  83.0     9.581399999999885   -1.0332798990269367   -1.0224687940599608    0.3449903172401997
                  84.0     9.856799999999886   -0.8539055808479077   -0.9006886343014173    0.3913645443826943
                  85.0    10.132199999999887                   nan                   nan                   nan
                  86.0    10.407599999999885   -1.5336487063502346   -1.2258858308043443   0.10091729362559514
                  87.0     10.68299999999989                   nan                   nan                   nan
                  88.0    10.958399999999887   -1.0958729866018473    -1.019804976529116    0.3973119303707661
                  89.0    11.233799999999889                   nan                   nan                   nan
                  90.0    11.509199999999886   -0.8467648535340544   -0.9319498670734845   0.35260962455772255
                  91.0    11.784599999999887   -0.8303644892687743   -1.1603013289298758   0.23165176719391012
                  92.0    12.059999999999885   -0.8951807888596335   -1.1617752191379225     0.452338440639712
                  93.0    12.335399999999886   -0.8007965665156433   -1.0381313249679351   0.29426481834342894
                  94.0    12.610799999999887   -0.8178764139642141     -0.59080372647648   0.11217617457957606
                  95.0    12.886199999999885   -0.9968408454173385   -0.7549886158989523    0.2339692984039413
                  96.0    13.161599999999886   -0.8930756877491746  -0.20026255825959538    0.3520886937465533
                  97.0    13.436999999999887  -0.31532934581071004  -0.04596997992317142   0.19563978689597988
                  98.0    13.712399999999885    -1.017451941441621   -0.7703635685713266   0.20411740825258817
                  99.0     13.98779999999989                   nan                   nan                   nan
                 100.0    14.263199999999888                   nan                   nan                   nan
                 101.0    14.538599999999885   -1.0222890237936895   -1.0422098872061554   0.20053531472162692
                 102.0    14.813999999999886  -0.22365133467805265   -1.0561859250234136    0.1960118803325294
                 103.0    15.089399999999888   -0.8389972491623467   -1.0320883368557077   0.32244173266697146
                 104.0    15.364799999999885   -0.7128394703782561   -0.8507877507224464    0.2430747580143095
                 105.0    15.640199999999886   -0.4498151048003649   -0.6061996138037671   0.22263294426429078
                 106.0    15.915599999999888                   nan                   nan                   nan
                 107.0    16.190999999999885   -1.0807584609904666    -1.053928124867781    0.5719026137064783
                 108.0    16.466399999999886   -1.1270795549879011   -0.8481667172231653    0.5030853210250008
                 109.0    16.741799999999888   -0.8665463077489761    -0.948695585396166    0.5913880917882312
                 110.0    17.017199999999885    -0.852396711926886   -0.8950161907733616    0.6976288206915051
                 111.0    17.292599999999887   -0.9558091760690814   -1.0999651897463707    0.7664808235816161
                 112.0    17.567999999999888                   nan                   nan                   nan
                 113.0    17.843399999999885   -1.2081701199566197    -1.075607459532165    0.3797871625542938
                 114.0    18.118799999999887   -0.9173586396494358   -1.2290452256738433    0.3807632136210634
                 115.0    18.394199999999884     -1.23713699086872   -1.0460070761299107    0.3870632553288501
                 116.0    18.669599999999885   -0.7862036035778033   -1.1439871959468064    0.3892880408614131
                 117.0    18.944999999999883   -0.8880292421817018    -1.118477580251806    0.2939799169509664
                 118.0    19.220399999999888   -0.9976877257091274   -1.1462832395762632     0.424887108517441
                 119.0    19.495799999999885   -0.9558305761759556   -0.9480344322709868    0.5201022090687502
                 120.0    19.771199999999883   -1.3312883172358028    -1.136989600189878    0.4462985866558408
                 121.0    20.046599999999888   -1.4155491232425987   -1.0541715047572495    0.4033356788178315
                 122.0    20.321999999999885   -1.2222062554760527   -0.8759061443845724    0.2730399422866419
                 123.0    20.597399999999883   -1.2024050972784863   -1.1059556420563297   0.26867784094727215
                 124.0    20.872799999999888                   nan                   nan                   nan
                 125.0    21.148199999999886   -1.1696831397947136   -0.9488637438456919    0.5334956290128473
                 126.0    21.423599999999883   -1.3089849643974816    -0.913876133690934    0.6679216026897359
                 127.0    21.698999999999888   -1.1342159972922872   -1.0518398591914888    0.6637563776537344
                 128.0    21.974399999999886   -1.0308357948265865    -1.056550890410648    0.6281614752227425
                 129.0    22.249799999999883   -0.9462276653445372    -0.726897199773731    0.6055901207526506
                 130.0    22.525199999999888   -0.9947462515798549   -0.9503084966629274    0.6408234816505177
                 131.0    22.800599999999886                   nan                   nan                   nan
                 132.0    23.075999999999883   -0.7338768572754901   -0.5820772893973754    0.8833520398217729
                 133.0    23.351399999999888   -0.9110300510736522   -1.0261677377467038                   1.0
                 134.0    23.626799999999886    -0.960141480971771   -0.8309234271141861    0.8376273101032254
                 135.0    23.902199999999883   -1.0333049604377038   -0.8889020257643949    0.7073654507356621
                 136.0    24.177599999999888    -0.689284982897405   -0.7482359691118177    0.5225727428784371
                 137.0    24.452999999999886   -0.8585236115738297   -0.9379218954024111    0.6632046241772986
                 138.0    24.728399999999883   -0.7989193084839741   -0.8152298088149905    0.5001321764744758
                 139.0    25.003799999999888    -0.920313381138314   -1.1365658022990601    0.5777741925988951
                 140.0    25.279199999999886                   nan                   nan                   nan
                 141.0    25.554599999999883   -0.9307319317009615   -0.9922253653966777   0.49244816932806046
                 142.0    25.829999999999888   -0.9284458683721937    -0.959211379595871    0.5188523638762806
                 143.0    26.105399999999886   -0.5057313454468044   -0.8140584078971926   0.48100962833419325
                 144.0     26.38079999999989                   nan                   nan                   nan
                 145.0    26.656199999999888  -0.42568325581213173   -0.9060671841951091   0.38749616105092527
                 146.0    26.931599999999886  -0.33989589291313393    -0.867392426796556    0.5456369823111223
                 147.0     27.20699999999989                   nan                   nan                   nan
                 148.0     27.48239999999989    -0.345592001106084   -0.7536256392685061    0.4233948472278761
                 149.0    27.757799999999886   -0.8370142185090828   -1.1235001816375814   0.37714918669815956
                 150.0    28.033199999999884   -0.7717417632061938   -1.3265964308120317     0.426758682966951
                 151.0     28.30859999999989  -0.40905306259737984   -1.0513552473752554   0.34575144269511165
                 152.0    28.583999999999886   -0.8342948002125894   -0.7764347040341022   0.37601152489999295
                 153.0    28.859399999999884   -0.8758813754363786   -0.4955886977225248    0.5923808037551448
                 154.0     29.13479999999989   -0.5212485642188085   -0.6018885359205512    0.4473779353035034
                 155.0    29.410199999999886   -0.5509027953480512  -0.04728818403359014    0.2797173533826904
                 156.0    29.685599999999884   -0.5538777078718482  -0.18380277481227836   0.46486715986633526
                 157.0     29.96099999999989  -0.07413829292291041  -0.22384500357708248    0.2898513458952819
                 158.0    30.236399999999886  -0.22619678700249324  -0.28684987252589167   0.09636747947793628
                 159.0    30.511799999999884                   nan                   nan                   nan
                 160.0     30.78719999999988   0.06482130638114825    0.6283219201498582   0.14155350675849415
                 161.0    31.062599999999886                   nan                   nan                   nan
                 162.0    31.337999999999884  0.014002139679789138  -0.14480687188986963   0.08274941506356413
                 163.0     31.61339999999989                   nan                   nan                   nan
                 164.0    31.888799999999886    0.6753130899897712   0.07889484495666466   0.13305478159503686
                 165.0     32.16419999999988    0.7372352901273445  -0.06921378162573433   0.09807216724433711
#-------------------------------------------------------------------------------------------------------------
# experiment: 211021_MKUM0014_DW
# path: /Users/andreapicco/Google Drive/RESEARCH/EvoCellBio/Protein_tracking/Data/Sla1/24_degree/Um/211021_MKUM0014_DW
# file: 28.W2data.txt
# protein: Sla1-GFP
# date: 24/11/21
# notes: the trajectory of the target protein
# t_unit: s
# delta_t: 0.2754
# coord_unit: pxl
# intensity_normalisation: Absolute
# aligned_to: ../../../Fimbrin/24_degree/Um/fim1_um_24deg.txt
# alignment_angle: -2.6160537305478355 rad
# alignment_translation: [ 68.29751815 135.99517577] pxl
# alignment_lag: -13.276800000000112 s
