#                frames                  t (s)                x (pxl)                y (pxl)                      f
                   48.0     -29.11540000000001   -0.30748324124141346    -0.4145164587117307    0.10830465152848105
                   49.0    -28.843900000000005                    nan                    nan                    nan
                   50.0     -28.57240000000001    -0.3720052418223676   -0.14782126561289033   0.052442946774021504
                   51.0    -28.300900000000013   -0.37896366954768324    -0.5526642688976082     0.0636865772355875
                   52.0    -28.029400000000006                    nan                    nan                    nan
                   53.0     -27.75790000000001    -0.5454585335873179   -0.41993724000965926    0.10938296142263883
                   54.0     -27.48640000000001   -0.48997079823211775    -0.4223267617508313    0.07358896569040171
                   55.0     -27.21490000000001     -0.710401527088329   -0.15773005682061836     0.1259435211573881
                   56.0     -26.94340000000001    -0.6702513789705935    -0.4679184962056624                    0.0
                   57.0     -26.67190000000001    -0.4821423881339295    -0.3093280230794022    0.16666661329027352
                   58.0    -26.400400000000012   -0.35261142452677374    -0.4897544609869371    0.08249406961584044
                   59.0    -26.128900000000012     -0.360768221199002   -0.19358053098625305    0.21599248545786853
                   60.0     -25.85740000000001    -0.5204666205181279   -0.13842778570635517    0.16894012737955963
                   61.0     -25.58590000000001     -0.416691010223452     -0.528155897235365    0.28114104210148405
                   62.0     -25.31440000000001   -0.40481488673640653    -0.3033606949824659     0.3059959730713962
                   63.0     -25.04290000000001    -0.6114667076311906   -0.30179732878404764    0.12946732387952006
                   64.0     -24.77140000000001    -0.5942615806306004   -0.43440749958890734     0.3380541550479603
                   65.0     -24.49990000000001     -0.572317316996187    -0.4763304660815493     0.3429361734698615
                   66.0     -24.22840000000001   -0.30159019884364424     -0.554723970626398     0.2549432678330262
                   67.0     -23.95690000000001   -0.43018705884501385    -0.4585551558484724    0.27238133547095106
                   68.0    -23.685400000000012    -0.5745516674573312   -0.41851428406459945     0.1826020287085998
                   69.0     -23.41390000000001    -0.5870071394327705    -0.2708514726229012      0.385963844752839
                   70.0     -23.14240000000001   -0.49776864967581913   -0.20677730351476242     0.5114993567610862
                   71.0     -22.87090000000001   -0.37515657500366073   -0.18995887241703002    0.44518409891627775
                   72.0     -22.59940000000001    -0.2866840775455972   -0.41136777810633873     0.4425765553587389
                   73.0     -22.32790000000001    -0.3057036451931654    -0.5053323067940241     0.4459940323057417
                   74.0     -22.05640000000001    -0.5715896045497852    -0.4216774665335379    0.32304460654499195
                   75.0     -21.78490000000001    -0.4572062176366596    -0.1301980926212707     0.3570083257565542
                   76.0    -21.513400000000008                    nan                    nan                    nan
                   77.0     -21.24190000000001    -0.6302019620908186   -0.29828458621832965     0.5339212849790183
                   78.0     -20.97040000000001    -0.5795490230269951  -0.006495381825509128     0.3675999101995562
                   79.0     -20.69890000000001    -0.6452958779237572   -0.08509284328059863     0.4673097881522981
                   80.0     -20.42740000000001   -0.49316280548033786   -0.24950894074348895     0.6687587010192863
                   81.0     -20.15590000000001    -0.5656574594453398    -0.2569368408838173     0.4484801979452864
                   82.0     -19.88440000000001    -0.6783921760133356  -0.011101844863446786     0.5449577082824255
                   83.0     -19.61290000000001     -0.584420179528617    -0.1427323179564155     0.5118160922779624
                   84.0     -19.34140000000001    -0.6037164162345721    -0.1054482105245853     0.5798283991661752
                   85.0     -19.06990000000001    -0.8203998948215765   -0.10806414390219743      0.521475084380071
                   86.0     -18.79840000000001    -0.7596230339149304   -0.11097354630371115    0.49060762298161165
                   87.0     -18.52690000000001     -0.705446917603179   -0.11255733081422648     0.5544882767826461
                   88.0     -18.25540000000001    -0.8368512724434001   -0.04800093969741681     0.5697453849969847
                   89.0     -17.98390000000001    -0.6618403928522727   -0.06588098541155318     0.5138209096041959
                   90.0     -17.71240000000001    -0.6022622210565696   -0.13351293814459098     0.6501369584871508
                   91.0     -17.44090000000001    -0.7033440634112753    -0.2150359556744661     0.4178004079450974
                   92.0     -17.16940000000001     -0.591845520948787   -0.11046060976186567     0.5957734223352662
                   93.0     -16.89790000000001    -0.5710731709647443    -0.3094295863515413     0.7141815845679026
                   94.0     -16.62640000000001    -0.6912920769102864    -0.2929434416458463     0.5786783513996411
                   95.0     -16.35490000000001    -0.6194118505087967    -0.1343592830218796     0.6615567310460695
                   96.0     -16.08340000000001    -0.6401175144605626   -0.23167306121550268     0.6147215081350427
                   97.0    -15.811900000000009    -0.6677789321229031   -0.21607129013303705     0.7068025117222565
                   98.0    -15.540400000000009    -0.5227033899902369   -0.24973805166295193      0.617324247817199
                   99.0     -15.26890000000001    -0.5393593659063138    -0.1895255171598862     0.6650135997712073
                  100.0     -14.99740000000001    -0.6822692445570087   -0.21727922455266224      0.573091124071611
                  101.0     -14.72590000000001   -0.41154221191692697   -0.33489719702241416     0.6705787292724785
                  102.0     -14.45440000000001    -0.5749433094010423   -0.32885318461458013     0.6470163610387771
                  103.0     -14.18290000000001   -0.46032207998145536   -0.31403799942023625     0.6139916393352844
                  104.0    -13.911400000000011    -0.3580875609648042   -0.38333798685481213     0.6595903447228948
                  105.0    -13.639900000000011     -0.537596900306148   -0.26793044019414936     0.6098971362177295
                  106.0    -13.368400000000008    -0.5557007416714401    -0.5506372153407995     0.7201742589782029
                  107.0    -13.096900000000009    -0.3098774897277141   -0.23336103913178619     0.6550096894166462
                  108.0    -12.825400000000009    -0.5411379754220316     -0.330369329253962     0.7838406599371844
                  109.0     -12.55390000000001    -0.5153420639856026    -0.4338076850179817     0.6390368037703376
                  110.0     -12.28240000000001   -0.44399301831169735    -0.4194997176073798       0.45524213293348
                  111.0     -12.01090000000001    -0.2959080863835122   -0.34062722748677743     0.5552937265550865
                  112.0     -11.73940000000001   -0.47384703882265766   -0.32870548173124803     0.6443159425571797
                  113.0     -11.46790000000001    -0.4436463864022211   -0.20984353493842178      0.819795105107192
                  114.0    -11.196400000000011    -0.4759710296206019    -0.2640006012345566     0.6578474987341789
                  115.0    -10.924900000000008    -0.3615801432514263   -0.37720878446206996     0.5279830544897178
                  116.0    -10.653400000000008    -0.5055698200490464   -0.32270288826984483     0.6540694108751411
                  117.0    -10.381900000000009    -0.5410288176936855   -0.37022534362557735     0.7466391287179193
                  118.0    -10.110400000000013    -0.3178014758120322    -0.5526829622838605      0.886212845626824
                  119.0      -9.83890000000001   -0.49881152309088206    -0.3697572908292841     0.8403015680810022
                  120.0     -9.567400000000006    -0.5425219070762135   -0.28937857242786436      0.766970730627812
                  121.0      -9.29590000000001    -0.6481476332602116    -0.2529715963778969     0.7645793614624788
                  122.0     -9.024400000000007    -0.4595959313899445   -0.29923154159862264     0.7018766179051963
                  123.0     -8.752900000000011     -0.527939124532494    -0.3321075272276488     0.7840123184175137
                  124.0     -8.481400000000008    -0.5379285582354885   -0.39151257226840386     0.9818695337902992
                  125.0     -8.209900000000012   -0.42873571463404003   -0.36296146379203975      0.824407465990964
                  126.0     -7.938400000000009     -0.562024833809502    -0.3752150951488815     0.5576396190334667
                  127.0    -7.6669000000000125    -0.6024019995210703    -0.2544297958856845     0.8720609490087842
                  128.0     -7.395400000000009    -0.5098114789106059   -0.45966496764257414     0.8997184608767586
                  129.0     -7.123900000000006    -0.4250365458836316   -0.45013005939593853     0.9608096643724424
                  130.0      -6.85240000000001     -0.469078026744707    -0.4087021896997669     0.6899582030815898
                  131.0     -6.580900000000007    -0.4975655550915721    -0.6269148637466344     0.6820196388830796
                  132.0     -6.309400000000011   -0.39516224238794306    -0.4925420584014901     0.7008220071295916
                  133.0     -6.037900000000008   -0.47141221431458247    -0.5211240021980004     0.7191382231874096
                  134.0    -5.7664000000000115   -0.44227601775136405    -0.6286224004829464     0.8531647450631372
                  135.0     -5.494900000000008     -0.574361419514275    -0.5187763994308767     0.6695023409284737
                  136.0     -5.223400000000012   -0.41472324991536125    -0.6150544820878849     0.9156541965534437
                  137.0     -4.951900000000009    -0.5166085614441864    -0.5383882517079144     0.9025364141760441
                  138.0     -4.680400000000006   -0.42908142474323396    -0.6044361016269875     0.9067116224000225
                  139.0      -4.40890000000001   -0.35973579527739075    -0.5779988310419526     0.7632698250332508
                  140.0     -4.137400000000007    -0.4118493678377102    -0.6208855065950942     0.7396629408876728
                  141.0    -3.8659000000000106   -0.40079109004378166     -0.553402558465713      0.836320116164112
                  142.0    -3.5944000000000074    -0.4472095521083861    -0.5559095256687314     0.7458753125321257
                  143.0    -3.3229000000000113   -0.39793229750298975    -0.5391318839824066     0.7535198795572364
                  144.0     -3.051400000000008    -0.5440592901329242    -0.7168530948772514     0.6825810517860967
                  145.0     -2.779900000000012     -0.613588215026343    -0.4734538853362906     0.7623958399720221
                  146.0     -2.508400000000009    -0.5346421281125369   -0.36837038319634274     0.8358797609207299
                  147.0    -2.2369000000000057    -0.4997298894347355    -0.3334724921353569     0.8401254259836496
                  148.0    -1.9654000000000096    -0.6209599834538859   -0.49972182486817474     0.5411210131437232
                  149.0    -1.6939000000000064                    nan                    nan                    nan
                  150.0    -1.4224000000000103    -0.3252199816143633   -0.47894977824395824     0.9223229363592198
                  151.0    -1.1509000000000071    -0.5042371793826059   -0.39701865753757204     0.6393404086945019
                  152.0    -0.8794000000000111    -0.4759824953356815    -0.4174586343821858     0.8785400958661372
                  153.0    -0.6079000000000079     -0.387932329949201     -0.469614951232721     0.8168849174005653
                  154.0    -0.3364000000000118    -0.6163516820864632     -0.468274070107185     0.7907146853509662
                  155.0   -0.06490000000000862   -0.40466363683643136    -0.5448828170178359      0.693789774086551
                  156.0    0.20659999999999457    -0.4193383098741843    -0.6637880443892072     0.8902826888507496
                  157.0    0.47809999999999064   -0.40519698380664293    -0.5146781621611893     0.9002433643268698
                  158.0     0.7495999999999938    -0.5235998496141145    -0.5829031137960428     0.8888613822542922
                  159.0       1.02109999999999   -0.38585378507002543    -0.6703699862485095                    1.0
                  160.0      1.292599999999993    -0.4419853144477197    -0.6366632241714285     0.7783171640225601
                  161.0     1.5640999999999892    -0.3939774339983937    -0.6577498863246234     0.7848789375364894
                  162.0     1.8355999999999923    -0.3724522636831611    -0.5871799534289579     0.8483307653950592
                  163.0     2.1070999999999884    -0.3321854422696151    -0.6038211109983678     0.8681413069551467
                  164.0     2.3785999999999987                    nan                    nan                    nan
                  165.0      2.650099999999995    -0.3266004866488106    -0.4468543824705904     0.6454531799893609
                  166.0      2.921599999999991  -0.046451410521203496   -0.27618027679298507     0.6038999781904058
                  167.0      3.193099999999994   -0.15961608618457346    -0.4137133551087331      0.539778810361895
                  168.0       3.46459999999999    -0.3300271276965314    -0.2795789442522718     0.6344772855157712
                  169.0     3.7360999999999933  -0.047372488548535596   -0.20084083707335765     0.5842188210072828
                  170.0      4.007599999999989  -0.030926129919883305   -0.31167251200366763     0.5491454065823982
                  171.0      4.279099999999993    0.04285497633586077    -0.5140314161039825     0.5042538316510694
                  172.0      4.550599999999989    0.02871063251399919    -0.1847759874200321    0.49351364732957365
                  173.0      4.822099999999992    0.20868230951980538    -0.3949429410062635     0.5080354423520542
                  174.0      5.093599999999995     0.2815767663232909   -0.34523331337413055    0.38879076528617157
                  175.0      5.365099999999991     0.1592322794234211     -0.165285191821809    0.49202828906135154
                  176.0      5.636599999999994    0.39223714928708775    -0.2941983815302933    0.38364933759362346
                  177.0       5.90809999999999     0.5764466238559725     0.1871664928623602     0.3764073353255538
                  178.0     6.1795999999999935                    nan                    nan                    nan
                  179.0       6.45109999999999    0.23659815712313348     0.9955552309830438     0.2952967818198297
                  180.0      6.722599999999993    0.42022585956878133     1.0431354928521515     0.3384365435283952
                  181.0      6.994099999999996                    nan                    nan                    nan
                  182.0      7.265599999999992     1.1563132982840973     1.0619844633154543    0.25589603645052533
                  183.0      7.537099999999995     1.2884553354043473     0.9556906650217201    0.04898799959903649
                  184.0      7.808599999999998                    nan                    nan                    nan
                  185.0      8.080099999999995    0.05701134946611974     1.8103291574537863    0.21601746560985674
#------------------------------------------------------------------------------------------------------------------
# experiment: sac6_and_sla1_raw_trajectories
# path: /Users/andreapicco/Google Drive/RESEARCH/EvoCellBio/Protein_tracking/Data/Sla1/24_degree/Sc/sac6_and_sla1_raw_trajectories
# file: 02.W2data.txt
# protein: Sla1-GFP
# date: 23/01/19
# notes: the trajectory of the target protein
# t_unit: s
# delta_t: 0.2715
# coord_unit: pxl
# intensity_normalisation: Absolute
# aligned_to: ../../../Fimbrin/24_degree/Sc/fim1_sc_24deg.txt
# alignment_angle: -1.92949756399924 rad
# alignment_translation: [-0.11816947 52.65949661] pxl
# alignment_lag: -42.14740000000001 s
