#                 frames                   t (s)                 x (pxl)                 y (pxl)                       f
                   158.0      0.7495999999999938     -0.7686912603739411      0.2800352509808164     0.05379727973870232
                   159.0       1.021099999999997                     nan                     nan                     nan
                   160.0       1.292599999999993    -0.39691757182769605      0.7658792046374572     0.16550368672305313
                   161.0      1.5640999999999892     -0.5985909181354603      0.6509537350798809     0.14077567514507142
                   162.0      1.8355999999999923     -0.3979809284112039     0.08709852784061667     0.11632499797472896
                   163.0      2.1070999999999955                     nan                     nan                     nan
                   164.0      2.3785999999999916     -0.5446712864385677     0.22189364439832104     0.26372069408530857
                   165.0       2.650099999999995     -0.4469755773763775     0.06933705789077038     0.26222187190507573
                   166.0       2.921599999999991    -0.19163850061800103    -0.20868851434583036     0.19947155631554914
                   167.0       3.193099999999994     -0.3482085106270172    -0.17877009141317046     0.32155464910993903
                   168.0        3.46459999999999     -0.3488038998653624     -0.3085533158747893      0.3582907539871079
                   169.0      3.7360999999999933    -0.28615643881375474    -0.13685206058296018      0.5275143709094696
                   170.0       4.007599999999989    -0.31286557688047933    -0.11160895885728905     0.42331034620335284
                   171.0       4.279099999999993   -0.012335512014810757    -0.10148416395386306        0.56376003178155
                   172.0       4.550599999999989   -0.023848353474537287    -0.19459997423075492      0.6431455463135082
                   173.0       4.822099999999992     0.03866828164536473     -0.2946668679733193      0.5809700914303424
                   174.0       5.093599999999995     0.09480118949479577    -0.12234726846018162      0.7596461894130753
                   175.0       5.365099999999991  -3.869208478901598e-05    -0.15049546106594391      0.6203678767934596
                   176.0       5.636599999999994      0.1359273375784622    0.027740610576728386      0.7925609180839306
                   177.0        5.90809999999999      0.2545343858331717        0.38499775375697                     1.0
                   178.0      6.1795999999999935                     nan                     nan                     nan
                   179.0        6.45109999999999    -0.06867665825454905      0.5204657728194988       0.601743411665707
                   180.0       6.722599999999993     0.17206294534641176      0.7259996035701874      0.5368561614825811
                   181.0       6.994099999999989      0.1347424883864119      0.6250672810154327      0.6996728670368838
                   182.0       7.265599999999992     0.10734384355430437      0.5881907458424536      0.7699404047282111
                   183.0       7.537099999999995      0.4446550326731047      0.6622653981552347      0.5640101193000177
                   184.0       7.808599999999991        0.16714917383019      0.9590974753804886       0.373711763430831
                   185.0       8.080099999999995     0.10774194954144933      1.1420693943825668     0.31720852701127655
                   186.0        8.35159999999999     0.30863308995634897      0.7195532134003528      0.4647334025696249
                   187.0       8.623099999999994     0.29954556289510537      0.8086661905805101      0.5193767955274231
                   188.0        8.89459999999999     0.25914932686826164      0.8383189205705648      0.4794927018477527
                   189.0       9.166099999999993     0.33937165861708296      1.2818162214719209     0.30012691698286437
                   190.0       9.437599999999989   -0.014714925463202189      1.5904507946670776     0.39103518960064093
                   191.0       9.709099999999992    0.026210300922386853      1.7635914352841482      0.3107057649795246
                   192.0       9.980599999999995                     nan                     nan                     nan
                   193.0      10.252099999999992      0.6726441464758541      1.1041844765037894     0.08704578280190953
                   194.0      10.523599999999995    0.061452096896726705      1.4280825584574615     0.12229863514980072
                   195.0       10.79509999999999    -0.06597210918050278      2.0010267617893334    0.036703262644685236
                   196.0      11.066599999999994                     nan                     nan                     nan
                   197.0       11.33809999999999     -0.3541439437145004      3.0734957518800954                     0.0
#-----------------------------------------------------------------------------------------------------------------------
# experiment: sac6_and_sla1_raw_trajectories
# path: /Users/andreapicco/Google Drive/RESEARCH/EvoCellBio/Protein_tracking/Data/Sla1/24_degree/Sc/sac6_and_sla1_raw_trajectories
# file: 02.W1data.txt
# protein: Sac6-mCherry
# date: 23/01/19
# notes: the trajectory of the reference protein
# t_unit: s
# delta_t: 0.2715
# coord_unit: pxl
# intensity_normalisation: Absolute
# aligned_to: ../../../Fimbrin/24_degree/Sc/fim1_sc_24deg.txt
# alignment_angle: -1.92949756399924 rad
# alignment_translation: [-0.11816947 52.65949661] pxl
# alignment_lag: -42.14740000000001 s
