#                frames                  t (s)                x (pxl)                y (pxl)                      f
                   42.0     -8.445300000000008    -1.1856140574569274      0.593822004148663     0.3027845544959945
                   43.0     -8.173800000000004                    nan                    nan                    nan
                   44.0     -7.902300000000007    -1.0769936447466062     0.6118584879423139    0.10740676667572827
                   45.0     -7.630800000000004                    nan                    nan                    nan
                   46.0     -7.359300000000008    -1.2435995613505089     0.8010265136802062     0.5446786776396543
                   47.0    -7.0878000000000085    -1.2560595720330632     0.8457905352018571      0.405084951213513
                   48.0     -6.816300000000009    -0.7569664012034973     0.5691688879066987     0.7967525887848156
                   49.0    -6.5448000000000075    -0.9270228443564523     0.6581320985679895     0.6224393125759805
                   50.0     -6.273300000000008     -1.164765854125017     0.5712746490303502    0.33469848409422825
                   51.0     -6.001800000000005                    nan                    nan                    nan
                   52.0     -5.730300000000009    -0.9488197980572188     0.4908694733961809    0.35078843340712185
                   53.0     -5.458800000000007    -1.3605750744492777     0.7781794683290002     0.3890879733748527
                   54.0     -5.187300000000008    -1.2197706856250843     0.4695597458713294     0.5540040695614924
                   55.0     -4.915800000000004                    nan                    nan                    nan
                   56.0     -4.644300000000008    -1.6014132083645922     0.4544973295304757     0.7550507636017855
                   57.0     -4.372800000000009     -1.343505603940656     0.4890674403388928     0.8877316490197392
                   58.0     -4.101300000000007     -1.267383147641171     0.5524346872092778      0.624621200085204
                   59.0    -3.8298000000000094    -1.3230589163948068     0.5172687522481283     0.5220642491729656
                   60.0    -3.5583000000000062    -1.4978221425850329     0.6602578564924073      0.709268785239425
                   61.0    -3.2868000000000066    -1.0859858718843913       0.57387029002372     0.5477173149367498
                   62.0     -3.015300000000007    -1.1744722166526138     0.5336513560925624       0.66412701550976
                   63.0    -2.7438000000000073     -1.251820661871653     0.5797899642444904     0.7020346630607854
                   64.0    -2.4723000000000077     -1.070993171037724     0.6296125937285595                    0.0
                   65.0     -2.200800000000008    -0.9678351216380552     0.6726981520173325                    1.0
                   66.0    -1.9293000000000085    -1.3513596562296009      0.300925638214423     0.7105456719425035
                   67.0    -1.6578000000000088    -1.2643243730222107    0.47440879199601227     0.8769563728415023
                   68.0    -1.3863000000000092    -1.2042969090600923      0.497677264126267     0.3090889619323003
                   69.0     -1.114800000000006    -0.8979211999285397     0.7215187345537544     0.6109885221419213
                   70.0    -0.8433000000000064    -1.4627472059551803     0.3431318194575823     0.5859850798436667
                   71.0    -0.5718000000000067    -1.1650005010640605     0.4282809371657663    0.41343237737474436
                   72.0    -0.3003000000000071    -1.1031476585671829     0.4572696639411262     0.5242649663478567
                   73.0  -0.028800000000007486    -0.9431463515807081     0.3111442256231456     0.9922974898878811
                   74.0    0.24269999999999214    -1.2404461554033368     0.3389860837512586     0.9878325054164709
                   75.0     0.5141999999999918    -1.4321663720080284    0.30022284300630986     0.8446752647627519
                   76.0     0.7856999999999914    -1.2055962455427949     0.3123175794866313    0.37094912106651207
                   77.0      1.057199999999991    -0.9619681748454934    0.34247335925287103     0.8281922461790487
                   78.0     1.3286999999999942    -0.9729153876952452     0.2999132985994635    0.49283707749466577
                   79.0     1.6001999999999938    -0.8170046345709618    0.18285857260678995     0.4831739284449167
                   80.0      1.871699999999997                    nan                    nan                    nan
                   81.0      2.143199999999993    -0.6396137575726879     0.1903567522380314     0.3222155926107683
                   82.0     2.4146999999999927    -0.7937782455425122     0.1322217066028628    0.18971241216255177
                   83.0     2.6861999999999924    -0.5187979588612652     0.3961380499954288    0.08370492501674051
                   84.0      2.957699999999992    -0.1786499223505924    0.37090540084923873     0.8340141434326244
                   85.0      3.229200000000006                    nan                    nan                    nan
                   86.0      3.500700000000002                    nan                    nan                    nan
                   87.0      3.772199999999998                    nan                    nan                    nan
                   88.0      4.043699999999994                    nan                    nan                    nan
                   89.0      4.315199999999994   -0.15741515918712423   -0.10284479228041477    0.49535436842359215
                   90.0      4.586699999999993                    nan                    nan                    nan
                   91.0      4.858199999999993    0.10296694886326563    -0.2613502000154071      0.353042109016703
                   92.0      5.129699999999993                    nan                    nan                    nan
                   93.0      5.401199999999992     0.4946756864581001    0.09355464049802009     0.8007703686966221
#------------------------------------------------------------------------------------------------------------------
# experiment: sac6_and_sla1_raw_trajectories
# path: /Users/andreapicco/Google Drive/RESEARCH/EvoCellBio/Protein_tracking/Data/Sla1/24_degree/Sc/sac6_and_sla1_raw_trajectories
# file: 03.W2data.txt
# protein: Sla1-GFP
# date: 23/01/19
# notes: the trajectory of the target protein
# t_unit: s
# delta_t: 0.2715
# coord_unit: pxl
# intensity_normalisation: Absolute
# aligned_to: ../../../Fimbrin/24_degree/Sc/fim1_sc_24deg.txt
# alignment_angle: 0.35799241569823687 rad
# alignment_translation: [-10.1273891  -45.77846706] pxl
# alignment_lag: -19.84830000000001 s
