#                frames                  t (s)                x (pxl)                y (pxl)                      f
                  380.0     36.016000000000076    -1.6752107301743422    -0.3147404212269862   0.024778691861334242
                  381.0      36.27500000000008    -1.6390290858786187    -0.4760750513472942    0.08058077143336832
                  382.0      36.53400000000008    -1.4673174063586885   -0.37301682621975374                    0.0
                  383.0      36.79300000000008    -1.0138058387563547    0.03406909987066342    0.13937870428080895
                  384.0      37.05200000000009                    nan                    nan                    nan
                  385.0      37.31100000000008     -1.491513940436434    0.05682135765370333     0.1248359594389157
                  386.0      37.57000000000008     -1.190059299924215    0.16785006099500777     0.1350852458940987
                  387.0      37.82900000000008     -1.129624923607949  -0.028232369077819897    0.05525562268716032
                  388.0      38.08800000000008    -1.1225573471655537    0.08187958001595064    0.09900713199831646
                  389.0      38.34700000000008    -0.9064001489023497    -0.3948199143649447     0.2342855697204008
                  390.0      38.60600000000008    -1.0427761789350711   -0.42356470746761943    0.15706219626909781
                  391.0      38.86500000000008    -1.1880233888791452    -0.4964352618326302    0.19685327310654757
                  392.0      39.12400000000008    -0.8269335208765085    -0.3880868275391123    0.30215615879448304
                  393.0      39.38300000000008    -0.9451421632273735    -0.3693513404739548    0.49430705081175064
                  394.0      39.64200000000008     -1.053130732479957    -0.5944926792653575     0.3000241489784982
                  395.0      39.90100000000008    -1.3102707333052024   -0.03051362680719194    0.11368143127545707
                  396.0      40.16000000000008    -1.2333805695258775    -0.1917932437182941    0.32578397933767406
                  397.0      40.41900000000008    -1.3221503865331954   -0.08708971378025154      0.324130809266768
                  398.0      40.67800000000008      -1.30476688551812  0.0025842082509583975     0.5343524968893816
                  399.0      40.93700000000008    -1.0741431554942125    -0.2823064440401737    0.44519722815724905
                  400.0      41.19600000000008    -1.3452338022691777  -0.060844630889164364    0.27350949054854984
                  401.0     41.455000000000084    -1.4694220941920833    0.11196072830223613    0.42401834402404787
                  402.0     41.714000000000084     -1.715475499257252   -0.04478704229703112     0.3355369467871509
                  403.0     41.973000000000084    -1.2778128803438449   -0.12606049178005208     0.4434194033592379
                  404.0     42.232000000000085     -1.487072594962882   0.003600962320859935     0.4467308032870209
                  405.0     42.491000000000085    -1.1511323704083338   -0.02097051104222203     0.6480182888263827
                  406.0      42.75000000000007     -1.187221470513208   -0.10953604474253353    0.30772146338209894
                  407.0      43.00900000000007    -1.7353742949347861    0.07299442566623782     0.6079263847139267
                  408.0      43.26800000000007    -1.3241720639263264    0.11676459151772889     0.7484812592427341
                  409.0      43.52700000000007    -0.9768797636841953  -0.016954619131034576     0.7617595175724068
                  410.0      43.78600000000007    -1.4219627532115169    0.00818012601217788     0.8411608988939769
                  411.0      44.04500000000007     -1.565389032379116   -0.07656097729159228       0.91227573073659
                  412.0      44.30400000000007    -1.1140374728691427     -0.295637766974842     0.6571700617063899
                  413.0      44.56300000000007    -1.2108902396841472   0.015671319924784655     0.7200406622799856
                  414.0     44.822000000000074    -1.1169687557745362    -0.3092482024391643     0.5899949632130562
                  415.0     45.081000000000074    -1.2659609838443373   -0.08682403451942378     0.6199990340408602
                  416.0     45.340000000000074     -1.167982709950266    -0.1532967751409302                    1.0
                  417.0     45.599000000000075    -0.8282008784251218   -0.02352882875038631     0.6353228258444669
                  418.0     45.858000000000075      -0.88793890136931    -0.3778495335641452     0.6238476912426605
                  419.0     46.117000000000075      -1.06128604169308     0.0919713633418624     0.5139335006129241
                  420.0     46.376000000000076    -1.1370153341209885   -0.10699293767308404     0.7820460394525311
                  421.0     46.635000000000076    -0.9429031995137365   -0.12914951934121177     0.7095130875963948
                  422.0      46.89400000000008    -0.5874086342448948    -0.4305468709458893      0.635985197826132
                  423.0      47.15300000000008    -0.6934061789760904     0.2003144330433173     0.6191660092778076
                  424.0      47.41200000000008    -0.9349449906231797   0.045634563619032065     0.5350369479371023
                  425.0      47.67100000000008     -0.659338622123002    0.28354517256941847     0.6872863677866428
                  426.0      47.93000000000008   -0.16689636159505028   -0.15025013931871456     0.8635062936837772
                  427.0      48.18900000000009                    nan                    nan                    nan
                  428.0      48.44800000000008     -0.629597798638116    0.39773545153589396    0.44024001784724515
                  429.0      48.70700000000008   -0.28922996735546747    0.05108380855558892    0.48117506629469575
                  430.0      48.96600000000008   -0.30141203949597184    0.04500646963436594      0.611913036078574
                  431.0      49.22500000000008   -0.22129071015557145     0.3850043130594685     0.6203315999733212
                  432.0      49.48400000000008    -0.2920136203134831   -0.11173302125696694      0.594570389672517
                  433.0      49.74300000000008     0.1302278829596304    0.11172169798982168     0.5138658834731292
                  434.0      50.00200000000008   -0.13870470488686237   -0.03974294103259979     0.3928781212554709
                  435.0      50.26100000000008    0.23881407791768083    0.12090316380589172     0.5782714391181254
                  436.0      50.52000000000008  -0.021431308844114483     0.1616027074666988     0.3623639320056761
                  437.0      50.77900000000008     0.5246641918444084    0.09008976099022448    0.21628239125484996
                  438.0      51.03800000000008     0.3669919660958243     0.1477537103215809    0.26680067433147575
                  439.0      51.29700000000008     0.5483970927598136  -0.057868782660143836    0.41773454982854225
                  440.0      51.55600000000008    0.32077098122607595    0.22669000913694504     0.4527160701102344
#------------------------------------------------------------------------------------------------------------------
# experiment: sac6_and_sla1_raw_trajectories
# path: /Users/andreapicco/Google Drive/RESEARCH/EvoCellBio/Protein_tracking/Data/Sla1/24_degree/Sc/sac6_and_sla1_raw_trajectories
# file: 05.W2data.txt
# protein: Sla1-GFP
# date: 23/06/01
# notes: the trajectory of the target protein
# t_unit: s
# delta_t: 0.259
# coord_unit: pxl
# intensity_normalisation: Absolute
# aligned_to: ../../../Fimbrin/24_degree/Sc/fim1_sc_24deg.txt
# alignment_angle: -0.8722093606133565 rad
# alignment_translation: [-89.2682697   45.14234876] pxl
# alignment_lag: -62.403999999999925 s
