#                frames                  t (s)                x (pxl)                y (pxl)                      f
                   38.0    -15.823800000000016    -0.8147964599002009    -0.2551671760198917    0.12416219767655169
                   39.0    -15.552300000000008                    nan                    nan                    nan
                   40.0    -15.280800000000012                    nan                    nan                    nan
                   41.0    -15.009300000000016    -1.4595269087767733    -1.1477218889178817                    0.0
                   42.0    -14.737800000000016    -1.0320145120562927    -0.6547361388730084    0.03452428186848581
                   43.0    -14.466300000000016    -1.3351131074627531    -0.3569178348642885   0.049739113369426505
                   44.0    -14.194800000000008                    nan                    nan                    nan
                   45.0    -13.923300000000012                    nan                    nan                    nan
                   46.0    -13.651800000000016     -1.210203473945775     -0.678172087771006    0.10530711241376657
                   47.0    -13.380300000000016    -1.1576172055829446    -1.0933994987696933     0.2671378838105233
                   48.0    -13.108800000000016     -1.325464901754863     -0.710395547042324     0.1841533236914071
                   49.0    -12.837300000000015    -1.2169745507979002     -0.878334132383022     0.1647905440862141
                   50.0    -12.565800000000015    -1.2155712291927117    -0.7162004042155838    0.41390314557175334
                   51.0    -12.294300000000016      -1.19623799802784    -0.8412929333039609     0.2675634511269534
                   52.0    -12.022800000000016     -1.168367673094906    -0.5024953085423145     0.1476323951653846
                   53.0    -11.751300000000015    -1.2893737780038137    -0.7023538504933007    0.16925206810783597
                   54.0    -11.479800000000015    -1.2923694589949761    -0.5618257286621176    0.24335624357382676
                   55.0    -11.208300000000015     -1.020613216202797    -0.8421548491392499    0.17416689064946472
                   56.0    -10.936800000000016    -1.2351355447096353    -0.7144322121009874     0.4560076452795092
                   57.0    -10.665300000000016    -1.2842038520735741    -0.8543360082483313     0.4508400421514294
                   58.0    -10.393800000000015     -1.388663616462189    -0.5342358946887216     0.4046590555178695
                   59.0    -10.122300000000017    -1.1395530386908206    -0.6552412589310577     0.2705893520710942
                   60.0     -9.850800000000014    -1.1558113912095251    -0.9412543925077794      0.366702503914366
                   61.0     -9.579300000000014     -1.128601754701073    -0.8621161837140625     0.3693295021609007
                   62.0     -9.307800000000015    -1.2030869553184473    -0.8163507936797934    0.29101764984449185
                   63.0     -9.036300000000015    -1.2765723914203662    -0.5810868131602258     0.4115566591152466
                   64.0     -8.764800000000015    -1.2920324154331908    -0.7054984434747698      0.472000017065356
                   65.0     -8.493300000000016    -1.2432535989079696    -0.4456605756044403     0.5742524307466519
                   66.0     -8.221800000000016    -1.1646751461899996    -0.4763558652992663      0.470968629609246
                   67.0     -7.950300000000016     -1.055273017846396    -0.4575417376583366    0.41041541342958177
                   68.0     -7.678800000000017    -1.3402839635092079    -0.7069400790970604     0.5224644080667938
                   69.0    -7.4073000000000135    -1.1862125654090079    -0.7206859759556976     0.6353208073619945
                   70.0     -7.135800000000014    -1.1703109810947225    -0.9896197356592658     0.5557631840541312
                   71.0     -6.864300000000014    -1.2128704742087564     -0.666668280462241     0.6414430038439715
                   72.0     -6.592800000000015    -1.4827818326943571    -0.6177779165296768    0.43494686274760763
                   73.0     -6.321300000000015    -1.0940379679602756    -0.7923515199999964      0.649936218231773
                   74.0     -6.049800000000015    -1.2776150198113427    -0.4263426097823966     0.6782881741348932
                   75.0     -5.778300000000016     -1.014375899851693    -0.3902448233700304     0.4990528727393735
                   76.0     -5.506800000000016      -1.10010706271418    -0.6351738914841394     0.6613838723852675
                   77.0    -5.2353000000000165    -1.3539472505186438    -0.6719469884490805     0.5050737436698195
                   78.0     -4.963800000000013    -1.1204690769476997   -0.20208238482376428     0.8234076956223094
                   79.0     -4.692300000000014     -1.269651409354438   -0.35870688985948496     0.5748806491661439
                   80.0     -4.420800000000014    -1.2154136553700852   -0.24876140527402013     0.6630882748204938
                   81.0     -4.149300000000014    -1.2962664684233118   -0.35841847217524814     0.6332057697968794
                   82.0     -3.877800000000015    -1.3964366056719228    -0.4673151089809511     0.6578118800476123
                   83.0     -3.606300000000015    -1.3759548950170881    -0.3839008343893009     0.5157246590128544
                   84.0    -3.3348000000000155    -1.1231721722781245    -0.3551674080416958     0.5429705665271574
                   85.0     -3.063300000000016    -1.3144901812395062  0.0067936375516777225     0.7231679273698445
                   86.0    -2.7918000000000163    -1.3166955927177568   -0.45770129839188334      0.737410033576088
                   87.0     -2.520300000000013     -1.336846763040917   -0.24608842970330924     0.6145490692981446
                   88.0    -2.2488000000000135    -1.2356449309839448    0.07764082885901447     0.6002387016677119
                   89.0    -1.9773000000000138    -1.3596206155199582    -0.3889852984033051                    1.0
                   90.0    -1.7058000000000142     -1.186023678306583   -0.29036459425283345     0.6036816372502591
                   91.0    -1.4343000000000146    -1.3623425170141203   -0.11089945507024934     0.8955962848719884
                   92.0     -1.162800000000015    -1.4114603522007556     0.0948341854642476     0.8910515672396357
                   93.0    -0.8913000000000153    -1.1833659846545217   -0.18958098726513084     0.8322272849445161
                   94.0    -0.6198000000000157    -0.8949736217844375   -0.18848386730481925     0.8758132708741301
                   95.0   -0.34830000000001604     -1.042826238477197   -0.20734729719185863     0.9828301186468877
                   96.0   -0.07680000000001641    -0.8942593371934535   -0.41775742448602093     0.7254621511734564
                   97.0    0.19469999999998677    -0.8848189641615605    -0.1721769148745742     0.6876613209438847
                   98.0     0.4661999999999864    -0.8524000318932821   -0.07029886829149623     0.4393795889808996
                   99.0      0.737699999999986    -0.7766865326465577   -0.17110804133054414      0.870652067254568
                  100.0     1.0091999999999857     -0.823932468084017   -0.17392235361584474     0.6039621490402869
                  101.0     1.2806999999999853    -0.6693344190002577    -0.2500216876831991    0.49010955958582386
                  102.0      1.552199999999985    -0.7699092429795158   -0.13049117747119388     0.8797137713156962
                  103.0     1.8236999999999846    -0.5126773901930548     0.4533307915313807     0.9642448793266009
                  104.0      2.095199999999984    -0.5318540131724063   -0.18530219251822855     0.6791201102422001
                  105.0      2.366699999999984   -0.47568217508256083     0.4478927110861908     0.4503430136565511
                  106.0      2.638199999999987   -0.48669857489614543   -0.30298600613793303     0.6364609864629062
                  107.0     2.9096999999999866    -0.3736816203653177   -0.30577519841863454     0.5758917715119477
                  108.0     3.1811999999999863   -0.26844929880615354    0.26513635538218816     0.9800655309672216
                  109.0      3.452699999999986    -0.2142281222363991    0.08034114439068896     0.8879627377950707
                  110.0     3.7241999999999855   -0.17019624173217807    0.23016857140010893      0.954829069127491
                  111.0      3.995699999999985    -0.5123163633176162   -0.01638609751200404     0.7831302555963701
                  112.0      4.267199999999985   -0.30495158731897476     0.5018249872285989     0.6476910573267972
                  113.0      4.538699999999988                    nan                    nan                    nan
                  114.0      4.810199999999984   -0.01938089373587104    -0.6187259172784034     0.7602189485180871
                  115.0      5.081699999999987   -0.15840038663787226    -0.5515632544197167     0.6304817123378257
                  116.0      5.353199999999987    0.14064309626916582   -0.42581434679890107      0.653661798773854
                  117.0     5.6246999999999865    -0.1617764484171147   -0.25583952461119486     0.4976460474502223
                  118.0       5.89619999999999                    nan                    nan                    nan
                  119.0      6.167699999999986    -0.4124481001202511   -0.20583344031717976     0.2988581143634834
                  120.0      6.439199999999989    -0.3572780118407337     0.1323806107809813      0.583612778538608
                  121.0      6.710699999999985    -0.5525375456061639    0.33657408882253437      0.432996079234448
                  122.0      6.982199999999988   -0.16365837398033278    -0.1752914714182423     0.3000985524311732
                  123.0      7.253699999999991                    nan                    nan                    nan
                  124.0     7.5251999999999875                    nan                    nan                    nan
                  125.0     7.7966999999999835    -0.5000750623523942     0.6092589448392336     0.5486010674380207
                  126.0      8.068199999999987                    nan                    nan                    nan
                  127.0      8.339699999999983     0.1574118637396893    -0.6217015733720497    0.13071529439872348
                  128.0      8.611199999999986     0.7160779887787356    -0.7928123755408936    0.05356495287828557
#------------------------------------------------------------------------------------------------------------------
# experiment: sac6_and_sla1_raw_trajectories
# path: /Users/andreapicco/Google Drive/RESEARCH/EvoCellBio/Protein_tracking/Data/Sla1/24_degree/Sc/sac6_and_sla1_raw_trajectories
# file: 07.W2data.txt
# protein: Sla1-GFP
# date: 23/01/19
# notes: the trajectory of the target protein
# t_unit: s
# delta_t: 0.2715
# coord_unit: pxl
# intensity_normalisation: Absolute
# aligned_to: ../../../Fimbrin/24_degree/Sc/fim1_sc_24deg.txt
# alignment_angle: 2.800356530454122 rad
# alignment_translation: [35.79407738 -1.85200734] pxl
# alignment_lag: -26.140800000000016 s
