#                frames                  t (s)                x (pxl)                y (pxl)                      f
                   88.0     1.3117999999999945    -0.4607513485964603   -0.27314583179779106    0.10564137809845929
                   89.0     1.5832999999999977                    nan                    nan                    nan
                   90.0     1.8547999999999938    -1.1026631238213227    0.44255603396802456                    0.0
                   91.0      2.126299999999997                    nan                    nan                    nan
                   92.0      2.397799999999993   -0.23161282176933895   -0.18448602981010964    0.17088279659687822
                   93.0     2.6692999999999927    -0.2724104693198015    0.32905299668189514    0.08312086403360751
                   94.0     2.9407999999999923    -0.8875700229366785      0.333061613636076    0.23083650087081622
                   95.0      3.212299999999992   -0.20833999219754418    0.15226906208565794     0.1453930497289015
                   96.0     3.4837999999999916   0.027333738813446473  0.0035805695539252724    0.12575678074728427
                   97.0      3.755300000000002                    nan                    nan                    nan
                   98.0      4.026799999999998                    nan                    nan                    nan
                   99.0      4.298299999999994     -0.665344849542528    -0.2551818143008049    0.19323292465325417
                  100.0      4.569799999999994   -0.03218717289717432   -0.05675748158411409    0.36549523206574347
                  101.0      4.841299999999993    0.08638223611986717   -0.42879615963700957     0.5741084706069766
                  102.0      5.112799999999993   0.045728143012631506   -0.16486015538858112     0.6219397235887317
                  103.0     5.3842999999999925    0.22400738784453011   -0.05853724880601163     0.7471159602011129
                  104.0      5.655799999999992    0.06621586357685061    0.18762745244760737                    1.0
                  105.0      5.927299999999992     0.2883584242653825    0.07715400123084493     0.8876343278128266
                  106.0      6.198799999999995    0.23088135449206248    0.05067124117315558     0.7211158764450991
                  107.0      6.470299999999995      0.658450822993025    0.39461789983668893    0.46084693752704625
                  108.0      6.741799999999994    0.37377504416149776    0.14481633810683547    0.40802234807521287
                  109.0      7.013299999999994   -0.31936126523842034  -0.060464580851657956    0.44084772581894077
                  110.0      7.284799999999997                    nan                    nan                    nan
                  111.0      7.556299999999993    -0.7605518330575833    -1.1563596882690703      0.786081803349091
                  112.0      7.827799999999993    -1.2227824344766702    -1.7818412081253712     0.6299084513923616
                  113.0      8.099299999999992    -1.0314989189259904    -1.7870278871759169     0.7167695962385338
                  114.0      8.370799999999992    -1.0643592457738649    -2.0023633944859114     0.3876630676214852
                  115.0      8.642299999999995    -0.9283927279288946     -2.042204160883081    0.42631934197334087
                  116.0      8.913799999999998                    nan                    nan                    nan
                  117.0      9.185299999999994     0.2599176349661221    -1.7132307763284444     0.3009427478377399
                  118.0      9.456800000000005                    nan                    nan                    nan
                  119.0                 9.7283                    nan                    nan                    nan
                  120.0      9.999799999999997      1.006262236577193    0.35310841199858345    0.04727739581203508
#------------------------------------------------------------------------------------------------------------------
# experiment: sac6_and_sla1_raw_trajectories
# path: /Users/andreapicco/Google Drive/RESEARCH/EvoCellBio/Protein_tracking/Data/Sla1/24_degree/Sc/sac6_and_sla1_raw_trajectories
# file: 08.W1data.txt
# protein: Sac6-mCherry
# date: 23/01/19
# notes: the trajectory of the reference protein
# t_unit: s
# delta_t: 0.2715
# coord_unit: pxl
# intensity_normalisation: Absolute
# aligned_to: ../../../Fimbrin/24_degree/Sc/fim1_sc_24deg.txt
# alignment_angle: -0.26365963785438035 rad
# alignment_translation: [-37.31822458 -35.44686885] pxl
# alignment_lag: -22.58020000000001 s
