#                 frames                   t (s)                 x (pxl)                 y (pxl)                       f
                     9.0  -7.993605777301127e-15      0.6812537991891929      0.2774530697394084     0.04961202988965715
                    10.0      0.2714999999999921     0.29965668380178556      0.6827525983710245                     0.0
                    11.0      0.5429999999999922     0.05421431352304751     0.21044765220071326     0.13547371780773418
                    12.0      0.8144999999999918     0.03676754528692072   -0.009211043787217932      0.3275933515360559
                    13.0      1.0859999999999923                     nan                     nan                     nan
                    14.0       1.357499999999992     -0.8727562224546404    0.019626927122828874      0.2476812985800803
                    15.0      1.6289999999999925    0.039632448761196315    -0.15293809316236207      0.3567608451928183
                    16.0       1.900499999999992     -0.0659212071245463     0.18603006542949174      0.4614396869417817
                    17.0      2.1719999999999917     -0.6423301617401762   0.0006053233886262888      0.4209033145763039
                    18.0      2.4434999999999922    -0.07569180726441971    -0.17099875821490684      0.6460413101668822
                    19.0       2.714999999999992    -0.17303109120339855    -0.15453458297754707      0.6807138757315511
                    20.0      2.9864999999999924     -0.6879813352884057     -0.5156447083088409      0.6080053535315606
                    21.0       3.257999999999992    -0.04460990278776222   -0.011308141508393987      0.7034858303069966
                    22.0      3.5294999999999925    -0.17859663022475303    -0.18226288132782997      0.7641763983284966
                    23.0       3.800999999999992     -0.1460324922130667     0.22247431297923015      0.7575153283731808
                    24.0       4.072499999999992    -0.21294917402832425     0.10059076093125441      0.6436361100531599
                    25.0       4.343999999999992     -0.2996501311124149    -0.24068220867621903      0.6446331918956758
                    26.0       4.615499999999992     -0.1886577161077696     0.18850646535936733      0.6698566133280405
                    27.0      4.8869999999999925    -0.27457449305740056     0.07297449153139723      0.7447906329290468
                    28.0       5.158499999999992     0.04823214339889148   -0.007868497649937467      0.8594496805583122
                    29.0       5.429999999999993     0.04354805031670139    -0.10198520305337411      0.9046046808533464
                    30.0       5.701499999999993      0.2798032010735412    -0.08506781596591395      0.9103384043471963
                    31.0       5.972999999999993     0.10360397617340311   -0.054404031698581434                     1.0
                    32.0       6.244499999999992    -0.17745532693025723      0.2544045196077036      0.8482236252742478
                    33.0       6.515999999999992     -0.2907602815400594      0.3987699334396524      0.9603118512597966
                    34.0       6.787499999999992     -0.1813849129681202      0.3824574839684374      0.8665995687134895
                    35.0       7.058999999999993    0.027916484562197752     0.33012171612411123      0.5398986959483744
                    36.0       7.330499999999993     0.31684153865153064      0.4379442291558604      0.7531997811381888
                    37.0       7.601999999999992     0.12138139275624837     0.15770516551982894      0.5909061039915459
                    38.0       7.873499999999992     0.24431265627366372  -0.0017570098792702993         0.6400199282262
                    39.0       8.144999999999992     0.18338676838909151    -0.03889430848155939       0.588496210150253
                    40.0       8.416499999999992        0.93026177358621      0.1251622907024199      0.3933524748013883
                    41.0       8.687999999999992      0.9010722255895018      0.2510405813316936      0.4484487900911388
                    42.0       8.959499999999991      0.1272429007687208     0.14639646984704768      0.3145340603693829
                    43.0       9.230999999999991      0.7920324433533494     -0.0572470275255057      0.2797347641603055
                    44.0       9.502499999999994     0.08009899103520013     0.15144241228004773     0.22853491328673578
                    45.0       9.773999999999994    -0.10742491578436386       0.633954783426276     0.24857578894855137
                    46.0      10.045499999999993      0.5682754581272107      0.7010977370159992      0.2510406664556724
#-----------------------------------------------------------------------------------------------------------------------
# experiment: sac6_and_sla1_raw_trajectories
# path: /Users/andreapicco/Google Drive/RESEARCH/EvoCellBio/Protein_tracking/Data/Sla1/24_degree/Sc/sac6_and_sla1_raw_trajectories
# file: 09.W1data.txt
# protein: Sac6-mCherry
# date: 23/01/19
# notes: the trajectory of the reference protein
# t_unit: s
# delta_t: 0.2715
# coord_unit: pxl
# intensity_normalisation: Absolute
# aligned_to: ../../../Fimbrin/24_degree/Sc/fim1_sc_24deg.txt
# alignment_angle: -1.7863847561180621 rad
# alignment_translation: [-45.36321986  90.71262888] pxl
# alignment_lag: -2.443500000000008 s
