#                 frames                   t (s)                 x (pxl)                 y (pxl)                       f
                    36.0     -25.237600000000008     0.09215078292842804      0.3433290294501976                     0.0
                    37.0     -24.966100000000008     0.29229804256451075      0.5222678533654381     0.03488127259787058
                    38.0      -24.69460000000001     0.13468572706562298      0.5113219388727259     0.06555192335536444
                    39.0     -24.423100000000005     0.17357470272213504      0.2002554663666256     0.04520185901579836
                    40.0     -24.151600000000002                     nan                     nan                     nan
                    41.0     -23.880100000000006      0.4199371150146334      0.6361354444046423    0.025052154814659222
                    42.0      -23.60860000000001     0.08055864073624974     0.23329575682597792     0.10862552945039124
                    43.0     -23.337100000000007    -0.12919500941521989     0.41647929467021605     0.08554893579706628
                    44.0     -23.065600000000007     0.16977614970087984      0.3689313846239308     0.13033223075777936
                    45.0     -22.794100000000007      0.3812998859977128      0.5127626026853491     0.10100649105669836
                    46.0     -22.522600000000008     0.03488401134526953      0.4640903335191826      0.1453584764064466
                    47.0     -22.251100000000008     0.08312122593787308      0.5397949080794255     0.12425081622539856
                    48.0      -21.97960000000001    -0.07818120653379168      0.5075197756749539     0.19908277881668224
                    49.0      -21.70810000000001     -0.0896254988154439     0.49125541810473194      0.2385534711756705
                    50.0     -21.436600000000006     0.15840168347973105     0.33390796893979235     0.17707655694612404
                    51.0      -21.16510000000001     0.11963645665444744      0.3495042636017853     0.30484693097210874
                    52.0     -20.893600000000006     0.22829678225831174      0.5537112203801051      0.2071259893100474
                    53.0     -20.622100000000007     0.12263836407878159      0.2580599693193353      0.3361953903912784
                    54.0     -20.350600000000007     0.04237508012899838      0.2960956254671814      0.2043013192160158
                    55.0     -20.079100000000007     0.22777349210426934       0.377303565411804     0.23969878682700915
                    56.0     -19.807600000000008     0.09632646733576422     0.28070585651293456     0.27387166142909286
                    57.0      -19.53610000000001     0.15660843693993343     0.43946135401032294     0.32461273903015503
                    58.0      -19.26460000000001    0.006926236577349698      0.2619054001264445     0.32520081897843867
                    59.0      -18.99310000000001     0.12822598894062054     0.37270478015001807     0.31238337816370193
                    60.0     -18.721600000000006     0.13561842835803617     0.30710917585018827      0.3475707990137999
                    61.0     -18.450100000000006     0.14487519367999369     0.45105522271766496      0.4004273839797539
                    62.0     -18.178600000000007     0.31802261680370947      0.4939014083077371      0.3393838186501131
                    63.0     -17.907100000000007     0.17771161691973703      0.3033723700338822     0.42515121327495525
                    64.0     -17.635600000000007     0.12608098835484327      0.4666724276915364     0.41649800047719365
                    65.0     -17.364100000000008    0.051894934318490016     0.35942645053847677      0.5245244888012448
                    66.0     -17.092600000000008     0.08933623988619388      0.2632021331889334     0.43240114037037575
                    67.0      -16.82110000000001    -0.04184637213196396     0.41067229417444295     0.41834941992426083
                    68.0      -16.54960000000001   -0.010811152337126373      0.5260948775465284     0.40571577002530756
                    69.0     -16.278100000000006     0.02041719396508057      0.4365442564865418      0.4482512587510987
                    70.0     -16.006600000000006      0.0769675440791815     0.25566847657122693     0.44927651126605184
                    71.0     -15.735100000000006     0.10833673650509468      0.5153148487691581     0.43149824519186647
                    72.0     -15.463600000000007     0.27493713913652584     0.44563994903441717     0.36400823260945375
                    73.0     -15.192100000000007    0.021283907678686376     0.32631557015063883     0.46007964442958027
                    74.0     -14.920600000000007   -0.047086017607142594     0.38335024534397455       0.531972991657269
                    75.0     -14.649100000000008     0.14273896036804956      0.3898668193454835      0.5414057226526255
                    76.0     -14.377600000000008     0.09710939890286596     0.45796231554380284     0.46856181186743806
                    77.0     -14.106100000000009      0.1436688373501056     0.39367411783630857       0.558492414864785
                    78.0     -13.834600000000005      0.1816237831770593     0.40814644398910715      0.5856730775113335
                    79.0     -13.563100000000006     0.07732743395885677     0.45007526013927723      0.5048435661453564
                    80.0     -13.291600000000006     0.20534094199571484      0.4242295283814368      0.5348058189070635
                    81.0     -13.020100000000006      0.2749207307956212      0.3484849336993019      0.6301063795075934
                    82.0     -12.748600000000007     0.15199995517096454      0.5049998547925725     0.49983838635144695
                    83.0     -12.477100000000007    0.038744492184669355      0.3972273975330296      0.5473443869591551
                    84.0     -12.205600000000008     0.10400065968117644     0.38021908645672653      0.4939448413127311
                    85.0     -11.934100000000008     0.06190772018994295     0.39884389633462547      0.5739543036134162
                    86.0     -11.662600000000008     -0.0851457944039069      0.4379230181082452      0.5447863538941242
                    87.0     -11.391100000000005     0.05572227856481504       0.365174560316488      0.5331641913097741
                    88.0     -11.119600000000005     0.19073698688616503     0.36209054509269656      0.4857435859264592
                    89.0     -10.848100000000006      0.0519603707152001     0.36926840390546367      0.5209590469994922
                    90.0     -10.576600000000006     0.08614520304438145     0.47226560394811123      0.6186058095263344
                    91.0     -10.305100000000007    -0.04682116763100197       0.541970090506835      0.5153377470343641
                    92.0     -10.033600000000007   -0.018978161208444533      0.3897670094560457      0.6075352746004523
                    93.0      -9.762100000000007    -0.01570949062574556     0.36418353241280954      0.6007436776944615
                    94.0      -9.490600000000008    0.017169345132359126     0.31763167655085844      0.6679833675593995
                    95.0      -9.219100000000008     0.08746188945156064     0.46787960783489524      0.5818188214133496
                    96.0      -8.947600000000008      0.1411556609327036      0.4000590185634163      0.5226924425991145
                    97.0      -8.676100000000005      0.0996683433619836       0.402301366169441      0.5862122145250395
                    98.0      -8.404600000000006     0.15410823881767755     0.37170222376686546      0.5670316823929832
                    99.0      -8.133100000000006       0.027420149844815     0.35972094326752746      0.5955389024954779
                   100.0      -7.861600000000006     0.13892167333054317      0.4066937084124884      0.5455877944478319
                   101.0      -7.590100000000007     0.16744183536832224      0.3791041512877644      0.5313874608201613
                   102.0      -7.318600000000007     0.10534782389792952     0.41617007882930324      0.5897567536151495
                   103.0     -7.0471000000000075      0.2365017854142053     0.42798098495834225      0.6231855426649836
                   104.0      -6.775600000000008     0.11348098557603947      0.4216749351505733      0.5136662948363164
                   105.0      -6.504100000000008     0.25364778875169236      0.3657750120333034      0.6864950129188955
                   106.0      -6.232600000000005     0.10858932688079648     0.25404558333768534      0.6595817520347006
                   107.0      -5.961100000000005      0.2128862930055817      0.3638108100224873      0.6369020549914657
                   108.0      -5.689600000000006     0.19338146655058353      0.5506596008051972      0.6153579869771009
                   109.0      -5.418100000000006     0.17235011932680067     0.44829946244092866      0.6799399735300296
                   110.0     -5.1466000000000065    0.060027527105333434      0.4237353240752082      0.7465444248899294
                   111.0      -4.875100000000007     0.20383275874080908      0.3617836501085705      0.7201427706187407
                   112.0      -4.603600000000007     0.17829704408330826      0.3621709444811909      0.7763292595137928
                   113.0      -4.332100000000008     0.17752452568765165       0.425012546118392       0.740714862541729
                   114.0      -4.060600000000008     0.18980955546702205     0.48195728005683414      0.7725425548619708
                   115.0      -3.789100000000005     0.14344701189737208      0.4891963127099004      0.8296801171367568
                   116.0      -3.517600000000005     0.20495184120598964      0.3685098064728045      0.7716327770832867
                   117.0     -3.2461000000000055     0.22050695103347095      0.3924720601909968      0.7753190467547776
                   118.0     -2.9746000000000095     0.22142177119736317      0.4266443787261487      0.8437366808941059
                   119.0     -2.7031000000000063     0.26708607761528214      0.3542408550455285      0.8788343730308117
                   120.0      -2.431600000000003     0.35844980474943355     0.29031780424099907      0.8992027909708443
                   121.0      -2.160100000000007     0.29388428914392506      0.4140676239442911      0.8094717833785716
                   122.0     -1.8886000000000038     0.19053956786824244      0.3985937046782908      0.8085775551780606
                   123.0     -1.6171000000000078     0.12486468200940237      0.3220073054129635      0.8157884808724895
                   124.0     -1.3456000000000046     0.14566476814108853        0.46107962899287      0.8280193712056481
                   125.0     -1.0741000000000085     0.15664192676009492     0.46922633720252094      0.7973642700263274
                   126.0     -0.8026000000000053     0.04710383012073294     0.44002309360483594      0.8345425467048151
                   127.0     -0.5311000000000092  -0.0046994573610916746      0.4859842482256127        0.70698706275096
                   128.0    -0.25960000000000605      0.0977009906997921     0.40315885290551634       0.801303411526469
                   129.0    0.011899999999997135     0.10132668801509226      0.4305501212218594      0.8275666490608056
                   130.0      0.2833999999999932      0.1340153671568416      0.5531974573362941      0.8625083355935453
                   131.0      0.5548999999999964      0.0453723225735132      0.3996473903711575      0.8696833188203938
                   132.0      0.8263999999999925     0.11211948071539979     0.45277097275208256      0.8719683420784842
                   133.0      1.0978999999999957     0.19667823941531992      0.4100680696993795       0.850148715146003
                   134.0      1.3693999999999917   -0.016229720131136105     0.47240595637966365      0.9124454235297236
                   135.0       1.640899999999995     0.19550385421370464     0.48632097880715186      0.8722079585290201
                   136.0       1.912399999999991     0.17486209913812445      0.4204785564990381      0.8840796790974924
                   137.0       2.183899999999994      0.2710173217663012     0.36647388817002735      0.9329978872966576
                   138.0      2.4553999999999974    0.049323675849691995     0.35379139172009033      0.9829337006772481
                   139.0      2.7268999999999934    0.031025161837483495     0.43517424093259294                     1.0
                   140.0      2.9983999999999966    0.007737541102500245     0.45156684126029134      0.8489944776055486
                   141.0      3.2698999999999927     0.18702070941395021      0.5020143929769976      0.8583341660429842
                   142.0       3.541399999999996     0.09792753881792748     0.40520768231524684      0.9068233588312427
                   143.0       3.812899999999992     0.13926424659926795     0.33995443052041274      0.9610903670108307
                   144.0       4.084399999999995     0.07624453231647976     0.37476705686079903      0.7118698852084255
                   145.0       4.355899999999991      0.1964198844850813     0.47709628404028237      0.7905933209208613
                   146.0       4.627399999999994     0.12255027361121762      0.3333790573785329      0.8581903961726626
                   147.0       4.898899999999998     0.24279072252871003     0.28892919347412693      0.8440935564587341
                   148.0       5.170399999999994     0.25487520574865385     0.24853605115631616      0.8705054071746263
                   149.0       5.441899999999997      0.3284732030457391     0.16909541934325034      0.7802179286126514
                   150.0       5.713399999999993      0.3523063020363608   -0.034599646602154976      0.8149939229189567
                   151.0       5.984899999999996      0.1695362427292153    -0.09019556516517113      0.7010996355790664
                   152.0       6.256399999999992     0.15940434524112845    -0.10593791420496501      0.7028376195788053
                   153.0       6.527899999999995    0.028376667086156715    -0.21266494284494897      0.6253744644317419
                   154.0      6.7993999999999915     0.05671302872389106    -0.33263438746371854      0.6720904954860341
                   155.0       7.070899999999995    -0.06919854572624473    -0.31746524693140543      0.7198779179675631
                   156.0       7.342399999999998     0.09883985822335717    -0.25479019541111647       0.631275401892868
                   157.0       7.613899999999994   -0.029139975247836958    -0.30084350962068207      0.6084835439578927
                   158.0       7.885399999999997    -0.07722507100655918     -0.3935962039851848     0.49428055925459913
                   159.0       8.156899999999993    -0.05785365620199201    -0.41290684614098616      0.5688925335514013
                   160.0       8.428399999999996    0.024446334587032936    -0.32030600389251873     0.47717474870862026
                   161.0       8.699899999999992     0.03147871660191015    -0.49979736865193125     0.48417078433091953
                   162.0       8.971399999999996     0.14771414043483588    -0.41193016867162235       0.500036197378698
                   163.0       9.242899999999992     -0.3037658797372913     -0.5414880766138968      0.5019834634059797
                   164.0       9.514399999999995    -0.13440648877779182    -0.49868302887618476      0.4875062963046045
                   165.0       9.785899999999998     -0.3713684145914229     -0.5845220098096338      0.4755642202676771
                   166.0      10.057399999999994     -0.1657115010150747     -1.0148475227905038      0.4004934059592102
                   167.0      10.328899999999997     0.34130210761133384     -0.9573235954503758      0.3504533339315248
                   168.0      10.600399999999993      0.5975500358842609     -0.8159021707586689      0.3042229085562446
                   169.0      10.871899999999997      0.2617650001854841     -0.8264104614747154      0.4061567662587409
                   170.0      11.143399999999993     -0.0922219748471349     -0.7428639723309018     0.34517208539726374
                   171.0      11.414899999999996    0.045082358300987835     -0.8668827520690883      0.2704244983859029
                   172.0      11.686399999999992      0.2672708412941489     -0.9510306571481522      0.3407373966845241
                   173.0      11.957899999999995     -0.2688619612499039      -1.178206631050017     0.29142101731968095
                   174.0      12.229399999999998    -0.06981444636328149     -1.1114260082057932      0.1799050507069195
                   175.0      12.500899999999994      0.5932647182655018     -1.0201379911597606      0.1611392589631847
                   176.0      12.772399999999998      0.5727886598574443     -0.7158054329983443     0.13211227509192097
                   177.0      13.043899999999994      0.4666140132205854     -0.8119122370474834     0.12072437582463746
                   178.0      13.315399999999997  -0.0013192744261587563     -1.1694577783175468     0.10346765789704446
                   179.0      13.586899999999993     0.15417604771414517     -0.7998371618843194     0.16530756555804124
                   180.0      13.858399999999996    -0.40175692917935635     -0.9994431673108366     0.14243948919890617
                   181.0      14.129899999999992     -0.7868790220992992     -0.6884010881720926     0.14548950072088868
                   182.0      14.401399999999995       -0.99202184747557      -0.779413112441631     0.09910765814175913
#-----------------------------------------------------------------------------------------------------------------------
# experiment: sac6_and_sla1_raw_trajectories
# path: /Users/andreapicco/Google Drive/RESEARCH/EvoCellBio/Protein_tracking/Data/Sla1/24_degree/Sc/sac6_and_sla1_raw_trajectories
# file: 10.W2data.txt
# protein: Sla1-GFP
# date: 23/01/19
# notes: the trajectory of the target protein
# t_unit: s
# delta_t: 0.2715
# coord_unit: pxl
# intensity_normalisation: Absolute
# aligned_to: ../../../Fimbrin/24_degree/Sc/fim1_sc_24deg.txt
# alignment_angle: -1.5715519063494185 rad
# alignment_translation: [-52.25070648  15.37772551] pxl
# alignment_lag: -35.01160000000001 s
