#                frames                  t (s)                x (pxl)                y (pxl)                      f
                  105.0      1.030699999999996    -0.2642513215182092   -0.02272708666128409                    0.0
                  106.0     1.3022000000000027                    nan                    nan                    nan
                  107.0     1.5736999999999988    -0.6515505613314332    0.09581022924006533    0.09681869390164974
                  108.0     1.8451999999999984    -0.3909523985781007   -0.08235011634666733    0.13194553580730045
                  109.0      2.116699999999998    -0.3558981628351958     0.3242058558803862    0.19506376544849768
                  110.0     2.3881999999999977   -0.24973316312377491   -0.09270161453274994     0.2600459650196165
                  111.0     2.6596999999999973   -0.42066168287524874  -0.007250821279733088     0.3049037589890447
                  112.0      2.931199999999997    -0.2333493572079277    -0.2541842033022874    0.31880253559003263
                  113.0     3.2026999999999965    -0.1593014225749485  -0.017000238942152635    0.33458846075767656
                  114.0      3.474199999999996    -0.1615397025043599   -0.08856719002962876     0.4840766586288588
                  115.0     3.7456999999999994   -0.09334840389362142   0.014201926220245298     0.5654448808197801
                  116.0      4.017199999999999    -0.2553058065146523  -0.008252152902507248     0.5060701283663468
                  117.0      4.288699999999999   -0.24221144449135323   -0.12392226420271157     0.6393821848998058
                  118.0      4.560199999999995    0.06406610597863605   -0.06619506351616877     0.6174865239151315
                  119.0      4.831699999999998    0.08490961463066071   -0.01777197721353474     0.7258581126120057
                  120.0      5.103200000000001    0.08937096741517081   0.013157919267577256     0.7243155870728413
                  121.0      5.374699999999997    0.05335757240922234    -0.0762667966735151     0.8308769497117825
                  122.0                 5.6462    0.06306710154146344  -0.058916513994830666     0.9545907582445265
                  123.0      5.917699999999996  0.0024932613632770995    0.04632836833237519                    1.0
                  124.0                 6.1892     0.1420048924028663   0.030048348225712118      0.821593523634186
                  125.0      6.460699999999996     0.2044546283903692  -0.034064423045627734     0.8106898853778207
                  126.0      6.732199999999999    0.18649604060651725   0.044476920314473034     0.8080437001356842
                  127.0      7.003699999999995    0.30859248038731124  -0.027065811292978026     0.8742479996963853
                  128.0      7.275199999999998     0.2849116170479711   0.018734585402945925     0.9303316404438173
                  129.0      7.546700000000001     0.5638180044732373   -0.35285117525989307     0.8500013627000718
                  130.0      7.818199999999997     0.5230598735582817    -0.8411287419945523     0.8192254820328632
                  131.0                 8.0897     0.5182130894333774    -1.0456134100570864     0.6811304756027019
                  132.0      8.361199999999997      0.308450411860445    -0.8642605614595809     0.7888925425665475
                  133.0                 8.6327     0.5387040706058528    -0.8467764685935109     0.6519014505496521
                  134.0      8.904199999999996     0.5767509247176577    -0.8906925165622752     0.5778008771713098
                  135.0      9.175699999999999     0.6289932087633403    -1.2146202735308549     0.6010760491071258
                  136.0      9.447199999999995     0.5599815802287011    -1.2104380780551836     0.5580277170647491
                  137.0      9.718699999999998     0.6383806325805743    -1.0943775234497082     0.5687003330846512
                  138.0      9.990200000000002     0.6975775047882209    -0.7925715254877232     0.5103744776210263
                  139.0     10.261699999999998     0.5555000788116615    -0.8454612677150593     0.3880799148452546
                  140.0                10.5332     0.6075669942981072    -0.5654700866937148     0.3595103347428152
                  141.0     10.804699999999997     0.4548995482790623   -0.43134385245513585    0.41770501440514074
                  142.0                11.0762    0.41541689361136847    -0.4237986234730755    0.37702217686114897
                  143.0     11.347699999999996     0.6659206295883671   -0.24915734569612624     0.3479380819652631
                  144.0                11.6192     0.5213440658241169     -0.408711626024548    0.25159926225710505
                  145.0     11.890699999999995     0.4210232831858569    0.05645205309587453    0.19527084491734523
                  146.0     12.162199999999999     0.7641019353505243   -0.05620170529181223     0.1539963153608901
                  147.0     12.433700000000002     0.6913925644615233  -0.024496739325492456    0.15117208762339757
                  148.0     12.705199999999998     1.0139955248529198     0.2951176389316572     0.0733861110042743
                  149.0     12.976700000000001     0.9906161256895558      0.366587214974615    0.08580349253660632
                  150.0     13.248199999999997     0.6263955043628471     1.0350130158743056    0.04296504177630883
                  151.0                13.5197     0.6659927310000349     0.8409850999069235   0.029196422135445255
#------------------------------------------------------------------------------------------------------------------
# experiment: sac6_and_sla1_raw_trajectories
# path: /Users/andreapicco/Google Drive/RESEARCH/EvoCellBio/Protein_tracking/Data/Sla1/24_degree/Sc/sac6_and_sla1_raw_trajectories
# file: 11.W1data.txt
# protein: Sac6-mCherry
# date: 23/01/19
# notes: the trajectory of the reference protein
# t_unit: s
# delta_t: 0.2715
# coord_unit: pxl
# intensity_normalisation: Absolute
# aligned_to: ../../../Fimbrin/24_degree/Sc/fim1_sc_24deg.txt
# alignment_angle: -2.1132389986031086 rad
# alignment_translation: [-16.22027826  52.37012851] pxl
# alignment_lag: -27.476800000000004 s
