#                frames                  t (s)                x (pxl)                y (pxl)                      f
                    0.0     -19.33180000000001    -2.2147422193618667     0.7852755657056201     0.1133286058329501
                    1.0     -19.06030000000001    -2.0363549751151027     0.7726816291468901    0.12647942064709358
                    2.0    -18.788800000000002                    nan                    nan                    nan
                    3.0    -18.517300000000006                    nan                    nan                    nan
                    4.0     -18.24580000000001    -2.8918735673828024     1.2409086253680628    0.01733363314445988
                    5.0               -17.9743                    nan                    nan                    nan
                    6.0    -17.702800000000003                    nan                    nan                    nan
                    7.0    -17.431300000000007    -1.2388825524102458     0.6914365560023463    0.07731615423130164
                    8.0               -17.1598                    nan                    nan                    nan
                    9.0    -16.888300000000005                    nan                    nan                    nan
                   10.0     -16.61680000000001    -1.0583529540663648     0.7097056837263858    0.08417348416023053
                   11.0     -16.34530000000001    -0.9560120528382328    0.27317623889841736    0.22027253737632788
                   12.0     -16.07380000000001    -0.8825967539614226     0.7012420566867896    0.07427178747091567
                   13.0    -15.802300000000008    -1.1836215126742928    0.43313080671421966    0.17734979802396522
                   14.0    -15.530800000000008    -1.3153526838279106     0.5977076103880514     0.1663425006060414
                   15.0    -15.259300000000007    -1.2933860234656152     0.6236494950252109    0.10043465061431073
                   16.0    -14.987800000000007    -1.1432906422053577     0.3299918403619295    0.13683791394892034
                   17.0    -14.716300000000007    -0.9759780316761919     0.4182275481446376    0.13301815405458678
                   18.0    -14.444800000000008     -0.744636798906285     0.5256229789668994     0.2513686906560879
                   19.0    -14.173300000000008    -1.3632325806333654     0.3780083293061609    0.25476705355140244
                   20.0    -13.901800000000009    -0.9999787259294095     0.6195568008635726     0.2016962361998147
                   21.0    -13.630300000000004                    nan                    nan                    nan
                   22.0    -13.358800000000008    -1.0529714246756896     0.5673903606497128    0.22765434797876702
                   23.0    -13.087300000000008    -1.2964199762332385     0.6074364029202521      0.215661242124294
                   24.0    -12.815800000000008     -1.794652199751674     1.0147484443686658     0.3874261139267177
                   25.0    -12.544300000000007    -1.8226736459640946     1.1349561105974275     0.3410075919427081
                   26.0    -12.272800000000004                    nan                    nan                    nan
                   27.0    -12.001300000000008     -1.354362740464481     1.0745940386057264     0.4424566538812702
                   28.0    -11.729800000000008    -1.1409195653502877     0.7432832619757215    0.21628824007847952
                   29.0    -11.458300000000003                    nan                    nan                    nan
                   30.0    -11.186800000000007    -0.9079705894057355     0.2967372142870439     0.4978216493841033
                   31.0    -10.915300000000007    -1.0136137783983372     0.6090073530026658    0.44582273232907926
                   32.0    -10.643800000000008    -1.4309198415864728     0.7169716496354668    0.31493733418821035
                   33.0    -10.372300000000008     -0.953530019176128     0.5177731681226043     0.3663964779366952
                   34.0    -10.100800000000008    -0.8917495392943238     0.5739449607197202     0.5687239600443146
                   35.0     -9.829300000000007    -1.0105326667122512     0.6045409494407488     0.4222613159820476
                   36.0     -9.557800000000007      -0.75806307048164     0.5244040550215368    0.46180353384429607
                   37.0     -9.286300000000008    -0.8629904689100272    0.49768024741382755     0.6569310177643755
                   38.0     -9.014800000000008    -0.7497412390368368    0.40001794745560426      0.597013065572545
                   39.0     -8.743300000000007    -0.7963907614182233    0.49952527505808186    0.44693059863295187
                   40.0     -8.471800000000007    -0.7002448817720079    0.31001816113078684    0.49312539505968656
                   41.0     -8.200300000000007    -0.7100398676338244     0.6693487870687478     0.5400312989222658
                   42.0     -7.928800000000008    -0.6685218736377578     0.4420420911015115      0.718710706429023
                   43.0     -7.657300000000008    -0.7002729898111255     0.4216575974422363     0.8074637677875977
                   44.0     -7.385800000000003                    nan                    nan                    nan
                   45.0     -7.114300000000007    -0.7215841473879436     0.5392103731973656     0.5056500615103684
                   46.0    -6.8428000000000075    -0.8661145123264475     0.3097293571639228     0.4918926389194112
                   47.0     -6.571300000000004                    nan                    nan                    nan
                   48.0     -6.299800000000008    -0.7934086842842731    0.26055904048096545     0.7758555944982771
                   49.0     -6.028300000000007    -0.6809700393731646   0.038562320199892586     0.6331589029178344
                   50.0     -5.756800000000007    -0.6427889669314197  -0.022633487730045143     0.6888005817997276
                   51.0     -5.485300000000008    -0.7205182840579454    0.09981009021115606     0.5614072847307024
                   52.0     -5.213800000000008    -0.8008205259372119  -0.007183394423014189     0.7387958807310557
                   53.0     -4.942300000000007    -0.7372365963518206    0.08169386979838444     0.6811803194008007
                   54.0     -4.670800000000007    -0.7013174908774005      0.228048476937746     0.7261044113015956
                   55.0     -4.399300000000007    -0.6924605577419527    0.07381834115542185                    1.0
                   56.0     -4.127800000000008    -0.7047955347894401   -0.18094412984695785     0.8244442543878527
                   57.0     -3.856300000000008    -0.6996416822769618   0.028953353487838118     0.7540460342237798
                   58.0    -3.5848000000000066     -0.655996641668608   0.027745858852024075      0.746519226804474
                   59.0     -3.313300000000009    -0.8334598986929365   -0.17363474202678608     0.5487489493394715
                   60.0    -3.0418000000000056    -0.7121648354105474  -0.014920511860368801     0.5264432280822585
                   61.0     -2.770300000000006    -0.6789544414696422   0.045614260719441635     0.6812397907514687
                   62.0    -2.4988000000000063    -0.6480019726689932    0.23372231850843272     0.7381870073789785
                   63.0    -2.2273000000000067    -0.7519218664723297     0.1405943262778302      0.737991601512498
                   64.0     -1.955800000000007    -0.6767680769401068    0.17936419375174006     0.7238731028639137
                   65.0    -1.6843000000000075    -0.6989273286672102    0.07348063891958256     0.7588722759289424
                   66.0    -1.4128000000000078     -0.670684247356661  -0.058303481338076946      0.727906959620652
                   67.0    -1.1413000000000082    -0.6683807545293945   -0.06982747208758289     0.5222725872189837
                   68.0    -0.8698000000000015                    nan                    nan                    nan
                   69.0    -0.5983000000000054    -0.8171225739166772   -0.06845240868532576     0.6353831314328178
                   70.0   -0.32680000000000575    -0.6102987794822639    0.08045088291613434     0.5086748876841063
                   71.0   -0.05530000000000612    -0.7363116534657479   0.022101188354620493     0.6419394230486033
                   72.0     0.2161999999999935    -0.7795293364711284   0.010249611259288915     0.6174576167507572
                   73.0    0.48769999999999314    -0.7923450082706296   -0.21390897635298378     0.5761743042984759
                   74.0     0.7591999999999928    -0.7027076350806283   -0.06974791944927494     0.7896033883943642
                   75.0     1.0306999999999924    -0.5491166104344245   -0.26463984961605425     0.8146164720915111
                   76.0      1.302199999999992    -0.5360554901320427   -0.15042431035170045     0.6072877325896205
                   77.0     1.5736999999999917    -0.5155516743278383   -0.18963286598012052     0.5908563647938666
                   78.0     1.8451999999999948    -0.3992633327473527   -0.43498002832453997     0.4711971752807613
                   79.0     2.1166999999999945   -0.43999676069637417    -0.3238904838501795     0.6477560043408421
                   80.0      2.388199999999994   -0.40380102617972113    -0.4419061271047915     0.6489774326047998
                   81.0     2.6596999999999937   -0.28053860213643134   -0.34674806888600207     0.6941467730278733
                   82.0     2.9311999999999934    -0.3702960789313323    -0.3033885831947045    0.49982300193253565
                   83.0      3.202699999999993    -0.1515124475349694    -0.4616775068849832     0.5342379397764783
                   84.0     3.4741999999999926  -0.025488738242131603    -0.3475161577467083     0.8052817356118979
                   85.0     3.7456999999999923   -0.20584008190517977   -0.15819816470871606     0.7591444281574755
                   86.0      4.017199999999992    0.08468662128817073   -0.09635240368499742     0.6523525733536631
                   87.0      4.288699999999995    0.31548683486599316   -0.38185671629766693     0.7494936439285981
                   88.0      4.560199999999995    0.06569694712278817   0.024229382431697477     0.7719879743265011
                   89.0      4.831699999999994    0.14884788684477712    -0.1200714815586088     0.8241021525230577
                   90.0      5.103199999999994     0.4077723356464844   -0.45649823949818247     0.8277420823808478
                   91.0      5.374699999999994    0.34638971528137574    -0.3521694078977382     0.7352808407096686
                   92.0      5.646199999999993     0.4932095062712136   -0.12634975887068256     0.7769974444311026
                   93.0      5.917699999999993    0.47692114968120336    -0.3364262364725277     0.7505222150982467
                   94.0     6.1891999999999925     0.6276690398962899   -0.17152454320136235     0.6674022234355635
                   95.0      6.460699999999992     0.6591490277971843   -0.47134571919591783     0.6087037171293349
                   96.0      6.732199999999992     0.4975062011276776   -0.07234584153767676      0.545037937057788
                   97.0      7.003699999999995     0.6178524406256258   -0.35817907657989556      0.615702928709143
                   98.0      7.275199999999995      1.012158117756627    -0.7138760095330361     0.5084511621268314
                   99.0      7.546699999999994     0.9896399107886111   -0.12574374675284394    0.46688776793259457
                  100.0      7.818199999999994     0.4445933880716382    0.21156216045327847     0.4587169707446266
                  101.0      8.089699999999993     0.5480049667764888     0.4560913957724346    0.43529573686702655
                  102.0      8.361199999999993      0.647985880293291     0.9660706944281245      0.356868884362773
                  103.0      8.632699999999993     0.7496143833762119     0.6100414705867032    0.41773837816529186
                  104.0      8.904199999999992     0.4490785882523909      1.228154564776832     0.3512247699874714
                  105.0      9.175699999999992    0.11331769008589276     1.3175269227373456    0.14947359358751577
                  106.0      9.447199999999995      0.687410845564699     1.2522991098629732    0.12918366792104016
                  107.0      9.718699999999995     0.6188080677852099     1.6517514392264894     0.1631211357781911
                  108.0      9.990199999999994      0.727012791305981     1.6651781639496464    0.20538317674432302
                  109.0     10.261699999999994     0.8987774872987728     1.2111288513860203    0.18131540432588938
                  110.0     10.533199999999994     0.5270443248867309     1.1446058528055247     0.0655164718649536
                  111.0     10.804699999999993     0.9811354672068546      1.489427713793797     0.2027794643726962
                  112.0     11.076199999999993      1.165384746484591     1.3244339076475407    0.02404738224106172
                  113.0     11.347699999999996                    nan                    nan                    nan
                  114.0     11.619199999999992     1.2267569936650347     1.3683606861547717                    0.0
#------------------------------------------------------------------------------------------------------------------
# experiment: sac6_and_sla1_raw_trajectories
# path: /Users/andreapicco/Google Drive/RESEARCH/EvoCellBio/Protein_tracking/Data/Sla1/24_degree/Sc/sac6_and_sla1_raw_trajectories
# file: 12.W2data.txt
# protein: Sla1-GFP
# date: 23/01/19
# notes: the trajectory of the target protein
# t_unit: s
# delta_t: 0.2715
# coord_unit: pxl
# intensity_normalisation: Absolute
# aligned_to: ../../../Fimbrin/24_degree/Sc/fim1_sc_24deg.txt
# alignment_angle: -1.098704837451081 rad
# alignment_translation: [-65.51836881   2.02690717] pxl
# alignment_lag: -19.33180000000001 s
