#                frames                  t (s)                x (pxl)                y (pxl)                      f
                   52.0    -2.9984000000000126    -0.2802667386615987      0.894764865743376                    0.0
                   53.0     -2.726900000000011                    nan                    nan                    nan
                   54.0    -2.4554000000000116     -0.848501995799241     0.5942927035607326    0.07932754778685933
                   55.0     -2.183900000000012                    nan                    nan                    nan
                   56.0    -1.9124000000000123      -0.43014452885485     0.6238661896229729    0.12582326060287052
                   57.0    -1.6409000000000127     -0.649466498104573    0.27538666215912855    0.23409724107149485
                   58.0    -1.3694000000000113     -0.112032353448285    0.23256266068143816     0.2955397281249664
                   59.0    -1.0979000000000099                    nan                    nan                    nan
                   60.0    -0.8264000000000102    -0.8199101694206306    -0.1952408988668921     0.2982849614017314
                   61.0    -0.5549000000000106    -0.7187579402361148     0.5633325463254621    0.40434377993253035
                   62.0     -0.283400000000011    -0.4231036099466543   -0.28638348681801773    0.34390739715584756
                   63.0  -0.011900000000011346    -0.7736869363275574    0.13804741528231546    0.42551445795358633
                   64.0     0.2595999999999883    -0.3919043605690966   -0.25801682736934595    0.44602223742080893
                   65.0     0.5310999999999879   -0.27000804223080443   -0.17457183945173682    0.49815774428038584
                   66.0     0.8025999999999875    -0.6512999721382648   -0.04309435478059953      0.590562585131107
                   67.0     1.0740999999999872    -0.5633959368649908    0.16720645878576335     0.5895927814596308
                   68.0     1.3455999999999868   -0.21031313849169742    0.14321713887284204     0.6766931963590491
                   69.0       1.61709999999999    -0.6017502796870815      0.381985541407154     0.6354243582011728
                   70.0     1.8885999999999896    -0.6781121957572545   -0.18865001015889504     0.9335294666038555
                   71.0     2.1600999999999893   -0.10430131290293154    0.06064188006406823      0.877665722575924
                   72.0      2.431599999999989   -0.08027051668578444   -0.01520963423966748     0.6045201678737993
                   73.0     2.7030999999999885   -0.42443897815099163    0.12611177321748102     0.9021521308867825
                   74.0      2.974599999999988   -0.24527065249614388   0.017625919913761834     0.8945479790875512
                   75.0     3.2460999999999878     -0.602267165093803    -0.3383106829779834      0.784844249777865
                   76.0     3.5175999999999874  -0.028585264477015926   -0.12704408512183818     0.8828051457758057
                   77.0      3.789099999999987     -0.320439365085857   -0.10923819233870802     0.8782663325910961
                   78.0       4.06059999999999    -0.5761924788719259    -0.1766412364074199     0.7969224511818734
                   79.0       4.33209999999999   -0.17200910643036416   -0.24233652331420075                    1.0
                   80.0     4.6035999999999895    0.03419102044291655    -0.2156120184648458     0.7841673259901608
                   81.0      4.875099999999989   -0.08781667860345621    -0.4596294261541516     0.6644099790364004
                   82.0      5.146599999999989    0.17335499136156685    -0.3209971408643213     0.7844948564517312
                   83.0      5.418099999999988    0.03892683878663483    0.13713676295560617     0.9786181184571251
                   84.0      5.689599999999988     0.2391633163184288    0.43457601801731016     0.9677551623173317
                   85.0      5.961099999999988    0.28493561622586405     0.3005841750484777     0.9262631579381585
                   86.0      6.232599999999987    0.07490586543292643      0.589611230861351     0.7819232885708368
                   87.0     6.5040999999999904    0.28764056002502514  -0.019239530825622353     0.9630142207621311
                   88.0       6.77559999999999    0.22127204930507283    0.05858068779278369     0.9068955474832542
                   89.0       7.04709999999999    0.26795928444617445    0.18688652551998075     0.7509980603926569
                   90.0      7.318599999999989     0.5517904397445399    0.19240287449326843     0.7316436501578664
                   91.0      7.590099999999989     0.4028892910584183     0.3841972170843775     0.5029197236863925
                   92.0      7.861599999999989     0.5167257589716989      0.435350232684911     0.4459809867329537
                   93.0      8.133099999999988     0.8602404951807721     0.1496670096209627    0.31664729259360397
                   94.0      8.404599999999988     1.1506013763761693     0.7289006372121349    0.31662130466025523
                   95.0      8.676099999999987     0.6893813156595314     0.4968962716055003     0.1836707502097597
                   96.0      8.947599999999987     0.8145006622955542    0.06611575112276569     0.2087932441273458
                   97.0       9.21909999999999     1.3771645106947084    0.25693093691692326    0.09964722411746216
                   98.0       9.49059999999999                    nan                    nan                    nan
                   99.0       9.76209999999999                    nan                    nan                    nan
                  100.0      10.03359999999999     2.8361861388424146      2.018194070299657    0.12017480391485529
#------------------------------------------------------------------------------------------------------------------
# experiment: sac6_and_sla1_raw_trajectories
# path: /Users/andreapicco/Google Drive/RESEARCH/EvoCellBio/Protein_tracking/Data/Sla1/24_degree/Sc/sac6_and_sla1_raw_trajectories
# file: 16.W1data.txt
# protein: Sac6-mCherry
# date: 23/01/19
# notes: the trajectory of the reference protein
# t_unit: s
# delta_t: 0.2715
# coord_unit: pxl
# intensity_normalisation: Absolute
# aligned_to: ../../../Fimbrin/24_degree/Sc/fim1_sc_24deg.txt
# alignment_angle: -1.602751983349076 rad
# alignment_translation: [-15.66646514  34.83712615] pxl
# alignment_lag: -17.116400000000013 s
