#                 frames                   t (s)                 x (pxl)                 y (pxl)                       f
                   107.0     -3.5606000000000115     -0.7047417908059579    -0.24406000296480101                     0.0
                   108.0      -3.289100000000005                     nan                     nan                     nan
                   109.0     -3.0176000000000087                     nan                     nan                     nan
                   110.0     -2.7461000000000126      -0.313210624314479   -0.023942226883853834     0.10334159911444962
                   111.0      -2.474600000000013      -0.753828220492931    -0.35521477308549976     0.04602887604457568
                   112.0       -2.20310000000001                     nan                     nan                     nan
                   113.0     -1.9316000000000138     -0.9706306863574667     -0.3077700333870226     0.12987172901874314
                   114.0      -1.660100000000007                     nan                     nan                     nan
                   115.0      -1.388600000000011     0.28733596167655406    -0.27465437209129107     0.17722633560801318
                   116.0     -1.1171000000000113    -0.04121099388468252     -0.3592876745285949     0.23817152475294878
                   117.0     -0.8456000000000117    -0.44114196528783367    -0.17094704840259567      0.2822569627566647
                   118.0     -0.5741000000000156    -0.36889520938092346   -0.017862174747726556      0.3360458528243199
                   119.0     -0.3026000000000124      -0.834610966193317    -0.07580135439894775     0.36081546548254073
                   120.0    -0.03110000000000923    -0.33662181508134026     -0.3292300201803968      0.3666691853257325
                   121.0     0.24039999999998685     -0.3791761479018909     -0.1532003358706291      0.5385165301629776
                   122.0        0.51189999999999     -0.6631397562021881    -0.15108396490214915      0.5439784585959162
                   123.0      0.7833999999999861    -0.41572403139265646     0.22390748317896936      0.5037918539442328
                   124.0      1.0548999999999893     -0.7190809936196878    -0.26013435507201876      0.3870967824003228
                   125.0      1.3263999999999925                     nan                     nan                     nan
                   126.0      1.5978999999999886     -0.5603075306498937   -0.019328198766608296      0.5646401128766317
                   127.0      1.8693999999999846    -0.45446689899022985    0.024408602692595593      0.7097535453942503
                   128.0       2.140899999999988    -0.06164080098196223     0.08880093323438842      0.6152366661807436
                   129.0       2.412399999999991     -0.2858592894698049   -0.021603910777223234      0.8065176281965661
                   130.0       2.683899999999987     -0.1635436690210419    -0.10284042669976401      0.8522399401831192
                   131.0      2.9553999999999903     -0.3157339575948015   -0.016768252660568805       0.712789420003699
                   132.0      3.2268999999999863    -0.06104299556063708     0.10904244105071115      0.6222120797432901
                   133.0      3.4983999999999895     -0.3507643869395487     0.04428443322566267      0.5583315079415355
                   134.0      3.7698999999999856     -0.2763981926448018    -0.06454027894999825      0.7469589735879163
                   135.0       4.041399999999989     -0.1894902426434122    -0.11954763179992511      0.7390175652300897
                   136.0       4.312899999999985   -0.009262396733841882    -0.18945068354873484      0.8442410351637878
                   137.0       4.584399999999988    0.018132076013920084      0.1409781001352428      0.9915296732383316
                   138.0       4.855899999999991                     nan                     nan                     nan
                   139.0       5.127399999999987    -0.18869351948096735    -0.04888808002380074      0.7973603944169214
                   140.0      5.3988999999999905    -0.06664879526110212    0.006827577695524667      0.9306954068562987
                   141.0       5.670399999999987    0.031288103371228004  -0.0006809153144402558      0.8644638321830184
                   142.0        5.94189999999999     0.12768712905746327    -0.19487752669513014                     1.0
                   143.0       6.213399999999993                     nan                     nan                     nan
                   144.0       6.484899999999989     0.08691094661283216    -0.03741633285283541      0.7821115674378597
                   145.0       6.756399999999985      0.2965596895787179    -0.29162751454007463      0.7246869039650563
                   146.0       7.027899999999988     0.07826797131076191    -0.07283929052054106      0.8657643761370537
                   147.0      7.2993999999999915      0.2200252812791632   -0.005717019100970333      0.7210345939094752
                   148.0      7.5708999999999875      0.3096183734558089     -0.3615074716980331      0.7152373530877615
                   149.0       7.842399999999991     0.12316287421805683     -0.6481900963511578      0.7045340696976565
                   150.0       8.113899999999987      0.3512060279265121    -0.49886930054660894      0.7114044119274535
                   151.0        8.38539999999999      0.4741004796163537     -0.4344467073602729      0.5997575981456563
                   152.0       8.656899999999986      0.2917546223351337     -0.4555098124821839       0.681744784531261
                   153.0        8.92839999999999     0.41898789078267384     -0.5337512060098746       0.634951660826685
                   154.0       9.199899999999985     0.10229485595243659     -0.6761230762792891      0.5132640473121202
                   155.0       9.471399999999988    -0.03262616852460809     -0.4012422762730594       0.422776004964048
                   156.0       9.742899999999992     0.05618447795031756     -0.7360370892103489      0.3434764058887775
                   157.0      10.014399999999988   -0.013960830163707527     -0.2604785422473057      0.3430874129885975
                   158.0      10.285899999999991      0.4467599248115839   -0.019391431235554535     0.19535508386244255
                   159.0      10.557399999999987     0.16054803432589537    -0.16508209291848175     0.15784919745091347
                   160.0       10.82889999999999     0.05846997154849021      0.4207494417641513     0.10080691221811688
                   161.0      11.100399999999986      0.3206582524341677      0.8950495263426959     0.04585689488007496
#-----------------------------------------------------------------------------------------------------------------------
# experiment: sac6_and_sla1_raw_trajectories
# path: /Users/andreapicco/Google Drive/RESEARCH/EvoCellBio/Protein_tracking/Data/Sla1/24_degree/Sc/sac6_and_sla1_raw_trajectories
# file: 18.W1data.txt
# protein: Sac6-mCherry
# date: 23/01/19
# notes: the trajectory of the reference protein
# t_unit: s
# delta_t: 0.2715
# coord_unit: pxl
# intensity_normalisation: Absolute
# aligned_to: ../../../Fimbrin/24_degree/Sc/fim1_sc_24deg.txt
# alignment_angle: 0.4206286591995018 rad
# alignment_translation: [ -8.65536052 -50.47122131] pxl
# alignment_lag: -32.611100000000015 s
