#                 frames                   t (s)                 x (pxl)                 y (pxl)                       f
                    79.0      -21.44850000000001     -0.5956347674589253     -0.9449105355051017     0.05255016780986949
                    80.0     -21.177000000000003                     nan                     nan                     nan
                    81.0     -20.905500000000007                     nan                     nan                     nan
                    82.0      -20.63400000000001     -0.7583363925872249     -0.8895248167807637                     0.0
                    83.0     -20.362500000000004                     nan                     nan                     nan
                    84.0     -20.091000000000008                     nan                     nan                     nan
                    85.0     -19.819500000000012     -0.5260696172581092     -0.5558550292614015      0.0750898143765143
                    86.0     -19.548000000000005                     nan                     nan                     nan
                    87.0      -19.27650000000001     -0.5948555729847413     -0.8259647629489848     0.04059451421037979
                    88.0      -19.00500000000001     -0.2487508914877523     -0.9602826970712357     0.23622353773300409
                    89.0      -18.73350000000001    -0.23064834686991986     -0.8946606470014657     0.21594074962182616
                    90.0      -18.46200000000001     -0.3173261135689742     -0.8455461321910249      0.1623841490495241
                    91.0     -18.190500000000007                     nan                     nan                     nan
                    92.0      -17.91900000000001    -0.37276360433744316     -0.7597412013461309     0.07308273644925406
                    93.0      -17.64750000000001    -0.10726517631187704     -0.7561197473615167     0.12798876109467233
                    94.0     -17.376000000000012      -0.486566750304533     -0.9803788252863654     0.04765416484661952
                    95.0     -17.104500000000012     -0.6970057289927709     -0.5996154294541896    0.060313163860291036
                    96.0     -16.833000000000013    -0.15331196487316134     -0.6486854730902536     0.20285742832060366
                    97.0      -16.56150000000001    -0.05806060541049618      -0.788587343937337     0.15087810040080638
                    98.0      -16.29000000000001     -0.4646000942913062     -0.7979531925655294     0.20509570554165513
                    99.0      -16.01850000000001    -0.39812896292337285     -0.8627280907874919      0.2494786592999687
                   100.0      -15.74700000000001    -0.24175463180578305     -0.7324775768402318      0.3153488306920565
                   101.0     -15.475500000000011    -0.32837492398380874     -0.7113817408294665      0.3024744721254069
                   102.0     -15.204000000000011     -0.6074361702805149     -0.7862585644822246     0.18527988517406346
                   103.0     -14.932500000000012     -0.5547428770745668     -0.7321772827193769     0.19835528660487947
                   104.0     -14.661000000000012     -0.6225857321507462     -0.6878271048154048      0.2674655988244475
                   105.0     -14.389500000000012     -0.5368763620793899      -0.469965474556723      0.3007455034935767
                   106.0      -14.11800000000001     -0.6085934634117294       -0.56447367103452     0.15187295796802933
                   107.0      -13.84650000000001     -0.7007102362275717     -0.5276000868448136       0.313571124396186
                   108.0      -13.57500000000001     -0.7286046695332686     -0.6724233887287099     0.32526237616825693
                   109.0      -13.30350000000001      -0.527852506867859     -0.4063144474862881        0.31088019612036
                   110.0      -13.03200000000001     -0.8850601146263273     -0.5023106092036684     0.28904328574709653
                   111.0     -12.760500000000011     -0.6962000977243932     -0.4866115253833172     0.35131692214340926
                   112.0     -12.489000000000011     -0.6928118655613957     -0.5307860157234501      0.4204537354677993
                   113.0     -12.217500000000012     -0.8479538883076216     -0.4172526701186925     0.43768981035565696
                   114.0     -11.946000000000012     -0.7055719767066151     -0.3279371286164192      0.3121702211654271
                   115.0     -11.674500000000009     -0.8117495757635211     -0.3745315195933401      0.3898589714768913
                   116.0      -11.40300000000001     -0.7584160198696352    -0.35888162554535796     0.40124287135510806
                   117.0      -11.13150000000001     -0.7477282625432906     -0.5696753546677726      0.4074234163762206
                   118.0     -10.860000000000014     -0.7303329761632753      -0.560973389329007      0.5154276029415616
                   119.0      -10.58850000000001     -0.8077625112880256     -0.5963703216588669     0.41575938458951606
                   120.0     -10.317000000000007     -0.8366208258937107    -0.46970329586635984     0.38631422024915907
                   121.0     -10.045500000000011     -0.7741498954770023     -0.4815231362151593      0.4981162892848417
                   122.0      -9.774000000000008     -0.9608189195132724     -0.6372880476854519     0.42152535485588566
                   123.0      -9.502500000000012     -0.6653405114490241     -0.5211078849001467      0.5455800726313037
                   124.0      -9.231000000000009     -0.7509904741519051    -0.43055431292202684      0.5503524037720514
                   125.0      -8.959500000000013     -0.7814577994989733     -0.4924393387052959     0.36237549811415704
                   126.0       -8.68800000000001     -0.9755439266267842     -0.5200726361112515      0.2930087039375767
                   127.0      -8.416500000000013     -0.9819067448248191     -0.6342630727054797     0.34800154254706683
                   128.0       -8.14500000000001     -0.7545867535525304    -0.37818755376630975      0.6025056642303925
                   129.0      -7.873500000000007     -0.6843815081914784     -0.5290148015592493      0.5881478530145158
                   130.0      -7.602000000000011     -0.7529480552179351    -0.34736952028316637      0.6331415506253346
                   131.0      -7.330500000000008      -0.753018861021026     -0.3931631676104743     0.45584002105467075
                   132.0      -7.059000000000012     -0.9423312196968894     -0.5881793287294528      0.6237595502975738
                   133.0     -6.7875000000000085     -0.8006228295373532    -0.40620490397862596      0.5879209182663281
                   134.0     -6.5160000000000124     -0.8858671521537715     -0.4340162904177731     0.48003461592588453
                   135.0      -6.244500000000009     -0.8922252366223162     -0.5139489877755565      0.5001191026664985
                   136.0      -5.973000000000013     -0.7589347681406551     -0.4847669341648668       0.522692256377171
                   137.0       -5.70150000000001      -0.842511530428304    -0.45086146405290606      0.6203698457635698
                   138.0      -5.430000000000007     -0.8905390774277109     -0.3865851404397844      0.5912640174090934
                   139.0      -5.158500000000011      -0.920160078631362     -0.3542763988101143      0.8013486320860754
                   140.0      -4.887000000000008     -0.7178512039443632     -0.5568350277842384       0.748254430101356
                   141.0     -4.6155000000000115     -0.8378863354683475    -0.46273310659228173      0.7765941632991986
                   142.0      -4.344000000000008     -0.8285393545623592     -0.4154675148161999      0.7766404640800368
                   143.0      -4.072500000000012     -0.7420880056891619    -0.21992479565231804      0.6233638613876465
                   144.0      -3.801000000000009      -0.854045145780276     -0.4380747555666389      0.8336452543831911
                   145.0      -3.529500000000013     -0.8851424182976331      -0.602272744905676       0.693059939406899
                   146.0     -3.2580000000000027                     nan                     nan                     nan
                   147.0     -2.9865000000000066     -0.7687884350281706     -0.5566119257569753      0.9435617850413142
                   148.0     -2.7150000000000105     -0.7592787901433695     -0.5573896012452124       0.886244159857101
                   149.0     -2.4435000000000073      -0.684560282898282     -0.4694485098028949      0.9390166932591545
                   150.0     -2.1720000000000113     -0.7367128481874303     -0.5316139097192547      0.7917284264253177
                   151.0      -1.900500000000008      -0.580267201343716     -0.5490804236430833      0.8920966394771422
                   152.0      -1.629000000000012     -0.7517039739468814     -0.3865141794181213      0.8155885590770547
                   153.0     -1.3575000000000088     -0.8489507624054724     -0.5818309159321373      0.7547831448099565
                   154.0     -1.0860000000000127     -0.7304344865027943     -0.4483439583588904       0.762884563015058
                   155.0     -0.8145000000000095      -0.846527175870186     -0.4762989999336824      0.7486172210880561
                   156.0     -0.5430000000000064     -0.6886925595989979    -0.46342316879437817      0.9447104708606643
                   157.0     -0.2715000000000103     -0.6843950961484495     -0.5150504815841401                     1.0
                   158.0  -7.105427357601002e-15     -0.6335995711359104     -0.2847926564169967      0.8582949371923815
                   159.0       0.271499999999989     -0.5317024442493334     -0.3695634863130195      0.7510166372108409
                   160.0      0.5429999999999922     -0.4281178729207582    -0.27687092885194886      0.8197659861061104
                   161.0      0.8144999999999882     -0.5500816508509629    -0.27678656065963025      0.7839106005028508
                   162.0      1.0859999999999914    -0.34843031822554593    -0.19529779732143027      0.8605164608414192
                   163.0      1.3574999999999875     -0.2101388049629307    -0.09534870559200925      0.6637902306570871
                   164.0      1.6289999999999907     -0.2262897679909841     0.06257839371102136      0.7242465614054966
                   165.0      1.9004999999999939     -0.2129892736442116    -0.09646427105266042      0.6151360298664404
                   166.0        2.17199999999999    -0.07406602559358788    -0.20267448089645512      0.7907938817173445
                   167.0       2.443499999999993    -0.19158659714192794     0.13146226746258094      0.7212750869510387
                   168.0       2.714999999999989    -0.21935414482553028     0.23226739812881902        0.68972445552414
                   169.0      2.9864999999999924   -0.046278797457524945     0.18836002836648902      0.6804137340300382
                   170.0      3.2579999999999885   0.0038513393153536413     0.12287032342646143      0.7425082595110027
                   171.0      3.5294999999999916     0.09102542059564911     0.21471094874520702       0.684331632998079
                   172.0      3.8009999999999877     0.07751040091101657      0.2845577511839963     0.46368221580915786
                   173.0       4.072499999999991     0.14317562705518583      0.2779249574713347      0.5735816882848667
                   174.0       4.343999999999994    0.047684203287431615     0.10013136918478693      0.6074184207656564
                   175.0        4.61549999999999     0.26003586755599173     0.06707517865453383      0.4561108197004948
                   176.0       4.886999999999993      0.4133092595414283     0.12039096743494326      0.4703437406522683
                   177.0       5.158499999999989      0.5516739460759155     0.40198856032986896      0.3776529281283944
                   178.0       5.429999999999993      0.2759186629248447      0.3838330531963834     0.31905746231512433
                   179.0       5.701499999999989     0.20627219388328655      0.7705608625274962     0.40153560194975024
                   180.0       5.972999999999992      0.6073688623160578     0.14978432008398102     0.22248043030483577
                   181.0       6.244499999999988     0.27749867419100127    0.062084618623032384       0.302658456807159
                   182.0       6.515999999999991     0.48210764737526546       0.435473251310853     0.22618418816149954
                   183.0       6.787499999999994      0.2403591985293545      0.3893140068456944     0.23403613044879465
                   184.0        7.05899999999999     0.15412914078532225     0.17905177277010154     0.12504592001783796
#-----------------------------------------------------------------------------------------------------------------------
# experiment: sac6_and_sla1_raw_trajectories
# path: /Users/andreapicco/Google Drive/RESEARCH/EvoCellBio/Protein_tracking/Data/Sla1/24_degree/Sc/sac6_and_sla1_raw_trajectories
# file: 19.W2data.txt
# protein: Sla1-GFP
# date: 23/01/19
# notes: the trajectory of the target protein
# t_unit: s
# delta_t: 0.2715
# coord_unit: pxl
# intensity_normalisation: Absolute
# aligned_to: ../../../Fimbrin/24_degree/Sc/fim1_sc_24deg.txt
# alignment_angle: -0.31889793712898246 rad
# alignment_translation: [-55.19220103 -48.05921626] pxl
# alignment_lag: -42.89700000000001 s
