#                frames                  t (s)                x (pxl)                y (pxl)                      f
                   66.0     -9.288600000000013    -1.3318028482118507    -0.8756370353127778     0.4308709399252659
                   67.0     -9.017100000000003                    nan                    nan                    nan
                   68.0     -8.745600000000007                    nan                    nan                    nan
                   69.0      -8.47410000000001    -1.4858708815245905    0.08419702414496655     0.1664784626124091
                   70.0     -8.202600000000011    -1.4560993962657847   -0.19128165567887123    0.10875456822568053
                   71.0     -7.931100000000011     -1.256402481483292    -0.1352876058578829                    0.0
                   72.0     -7.659600000000008                    nan                    nan                    nan
                   73.0     -7.388100000000012     -1.141842227970784   -0.04415528395642099    0.15738860162545118
                   74.0    -7.1166000000000125    -1.2947143699653196   -0.11620798233063567    0.07079999620959668
                   75.0     -6.845100000000013    -1.1800799494191097    0.22096376856798017     0.2793835224849884
                   76.0     -6.573600000000013    -1.3813343621785208    0.09905102606386507     0.4787642653408677
                   77.0     -6.302100000000014    -1.3554154758083001   -0.08204924941446379    0.13695201033516638
                   78.0      -6.03060000000001    -1.5138701307687938   -0.09400199145771282     0.1610226508185691
                   79.0     -5.759100000000011    -1.3597471668433485    0.42216552486508263    0.26726923550723486
                   80.0     -5.487600000000011    -1.1462629299076639     0.2580700926160624     0.6099224862518912
                   81.0    -5.2161000000000115    -1.0696393253130196   -0.08836366040018362     0.3661711240756943
                   82.0     -4.944600000000012    -1.4787764342791547   -0.23151644743849786     0.5026935553667372
                   83.0     -4.673100000000012    -1.2883105989316448    0.04410296669514224     0.5627840828329475
                   84.0     -4.401600000000013    -1.3585377788285626    -0.2680859502985875     0.2996369109476323
                   85.0     -4.130100000000013    -1.2360164479628537  -0.043008859565446755     0.7042269314473971
                   86.0    -3.8586000000000134    -1.2378905642046618    0.35969864420535913     0.7195622715887159
                   87.0      -3.58710000000001    -1.3817878102078822   -0.13438503529102874     0.9534451607604811
                   88.0    -3.3156000000000105    -1.4004650260948637     0.1670704335011557     0.7775870292398029
                   89.0     -3.044100000000011     -1.260833748690203     0.0659836589787588     0.5960377650518496
                   90.0    -2.7726000000000113    -1.3318691693888525     0.1085337863835818      0.525000078966736
                   91.0    -2.5011000000000116    -1.1058631450221696   -0.08670960124830529    0.49610615024527066
                   92.0     -2.229600000000012    -1.3508305464334285     0.2005410113530104     0.8091760926627267
                   93.0    -1.9581000000000124    -1.3410418397052126    0.07701352863928079                    1.0
                   94.0    -1.6866000000000128     -1.274350645009548     0.3163182599089751     0.7712365243264926
                   95.0    -1.4151000000000131    -0.9923154011649302   0.053620812935246676     0.7597468642309113
                   96.0    -1.1436000000000135    -1.1393401677695607      0.264388001239908     0.8167892756855102
                   97.0    -0.8721000000000103    -1.0676095748325025     0.1958782755223467     0.8989754855664599
                   98.0    -0.6006000000000107    -1.1776165579812528    0.07554642215214358     0.7949312831462874
                   99.0   -0.32910000000001105    -1.1747154976391698     0.4041008194836877     0.6256352873915391
                  100.0   -0.05760000000001142    -0.9499923694141046      0.429248919088689      0.629101137436866
                  101.0     0.2138999999999882    -1.1054291197609984    0.15359970531945066     0.8740725356850679
                  102.0    0.48539999999998784    -1.0506788247065373    0.31804987976888555     0.9900146562262112
                  103.0     0.7568999999999875    -0.9728617042549388     0.2003583333365917     0.7232539664991519
                  104.0      1.028399999999987     -1.018230356695355    0.36927916741498734     0.7367185846633962
                  105.0     1.2998999999999867    -0.8571225930010229   -0.11098896343528608     0.6091944129454908
                  106.0       1.57139999999999    -0.8549810532539794    0.10716759117519103     0.4509766605914924
                  107.0     1.8428999999999895    -0.6954550883837669    0.23928179890555157     0.3746687345422614
                  108.0      2.114399999999989    -0.7718788658647924    0.07591928272288584     0.4343944356879108
                  109.0      2.385899999999989    -0.4265850051121731    0.06045333860202007     0.3838896803110657
                  110.0     2.6573999999999884    -0.6141646612143319   -0.05155246030854954     0.4048529797308182
                  111.0      2.928899999999988   -0.30354468529537826    0.07974851977198583     0.3598537851915259
                  112.0     3.2003999999999877    -0.2686920527141723     0.4636533210537124    0.39035152832220954
                  113.0     3.4718999999999873   -0.20319564916360378    0.32619751971400746     0.5431505832483124
                  114.0      3.743399999999987   -0.36596204892668993     0.1422139092234005    0.29414793312465054
                  115.0       4.01489999999999   -0.12377695502385677    0.16447539651146315     0.4834999005019125
                  116.0       4.28639999999999   -0.14524565860207872    0.11307871114489387     0.4002389533432936
                  117.0      4.557899999999989   -0.07882551899169243    0.07451213774076137    0.40391801357596124
                  118.0     4.8293999999999855   -0.24792124885577493  -0.038640744351276624     0.2047725915935171
                  119.0      5.100899999999989   -0.08750182131687723     -0.284895466572177    0.24557391444427942
                  120.0      5.372399999999992   -0.15091595236870603   -0.03923698797243702     0.3106156562609565
                  121.0      5.643899999999988    0.12587954895364817    -0.1621150135616496    0.28740259453107964
                  122.0      5.915399999999991    0.16085351295807016    -0.4045885181715718     0.6399614326461122
                  123.0      6.186899999999987      0.067941271032538    -0.7698644616572672     0.5971843620593261
                  124.0       6.45839999999999    -0.1720378860217977     -1.293292970915676     0.8079363149067086
                  125.0     6.7298999999999864  -0.009584013824436965     -1.545940963577575     0.7143417806683113
                  126.0       7.00139999999999    0.01889522131311594    -1.5453132247950556     0.7113639450517862
                  127.0      7.272899999999986   -0.08622570640858385    -1.5030009124034223     0.7406929804888988
                  128.0      7.544399999999989    0.36749728277735016     -1.308698505014366     0.2497946864862644
                  129.0      7.815899999999992    0.13556984359888702    -1.7984125793190806     0.3632454065049638
                  130.0      8.087399999999988    0.45034885378481704    -1.4853047834973019    0.25917119672509153
#------------------------------------------------------------------------------------------------------------------
# experiment: sac6_and_sla1_raw_trajectories
# path: /Users/andreapicco/Google Drive/RESEARCH/EvoCellBio/Protein_tracking/Data/Sla1/24_degree/Sc/sac6_and_sla1_raw_trajectories
# file: 20.W2data.txt
# protein: Sla1-GFP
# date: 23/01/19
# notes: the trajectory of the target protein
# t_unit: s
# delta_t: 0.2715
# coord_unit: pxl
# intensity_normalisation: Absolute
# aligned_to: ../../../Fimbrin/24_degree/Sc/fim1_sc_24deg.txt
# alignment_angle: 1.9095897763904819 rad
# alignment_translation: [ 97.78434598 -23.21494223] pxl
# alignment_lag: -27.207600000000014 s
