#                 frames                   t (s)                 x (pxl)                 y (pxl)                       f
                    88.0     -14.180600000000005    -0.01393822040640913     -0.7871255353569921     0.15138863192909308
                    89.0     -13.909100000000006    0.017579769647003474       -0.45832163025851    0.024732353855573173
                    90.0     -13.637600000000003                     nan                     nan                     nan
                    91.0     -13.366100000000007    -0.02297215018637644    -0.49811910815382987                     0.0
                    92.0                -13.0946                     nan                     nan                     nan
                    93.0     -12.823100000000004                     nan                     nan                     nan
                    94.0     -12.551600000000008    -0.02924287241638268      -0.671555489273004      0.1622311697212564
                    95.0     -12.280100000000008      0.4884083605627616    -0.19565344795759643      0.0787625748706671
                    96.0     -12.008600000000008     0.15933924332977512     -0.4338512571068378     0.12194580765589727
                    97.0     -11.737100000000005     -0.1154162882635319     -0.8096612297989907     0.13232486415038924
                    98.0     -11.465600000000002                     nan                     nan                     nan
                    99.0     -11.194100000000006    -0.03506253476083998      -0.625839071749354     0.26201125452116786
                   100.0     -10.922600000000006      0.3534144626470166     -0.7595434414833875     0.13156383930359555
                   101.0     -10.651100000000007    -0.05667530226357442     -1.0135752066734511     0.15419113612680954
                   102.0     -10.379600000000007   -0.008943343256138547     -0.9607677503977214     0.15357697572413392
                   103.0     -10.108100000000007     0.20385509280333736      -0.417420791147336    0.049191959457784123
                   104.0      -9.836600000000008     0.06254117238842838     -0.5902541656412978      0.2355845554553148
                   105.0      -9.565100000000001                     nan                     nan                     nan
                   106.0      -9.293600000000005    -0.00107152109975317     -0.6213021740988296      0.0963265451442864
                   107.0      -9.022100000000005      -0.141730085373311     -0.6094369505652679      0.2282769367510152
                   108.0      -8.750600000000006     0.24453857410504298     -0.7889487136500435      0.2179748092510613
                   109.0      -8.479100000000006     0.08911886152360893     -0.4278088456679683      0.2600180942081368
                   110.0      -8.207600000000006    0.035490710087426436      -0.544523284190106      0.2226738356860255
                   111.0      -7.936100000000007    -0.23587007944966487     -0.5410480671023521     0.16468336089425825
                   112.0      -7.664600000000007    -0.17864233456670675       -0.69219583942008      0.3218658269326502
                   113.0     -7.3931000000000076     -0.0741814384045334     -0.7931027539601416      0.2818748295323417
                   114.0      -7.121600000000008     0.09591708138025012     -0.8197430661396936      0.3163243962186538
                   115.0      -6.850100000000005    -0.05025737235198591      -0.505480425995998     0.12828768137917793
                   116.0      -6.578600000000005   -0.024887164547049423     -0.6357313023882085      0.2866857526866338
                   117.0     -6.3071000000000055     0.08732889929541443     -0.7473718402797118     0.28978071421895774
                   118.0      -6.035600000000009    -0.04179300344755177     -0.9143362514847126     0.33581031980209547
                   119.0      -5.764100000000006    -0.02397624724665448     -0.7296179051314624      0.2138181004387496
                   120.0      -5.492600000000003     0.14586306142262728     -0.8263712165308164      0.4250447745821517
                   121.0      -5.221100000000007     -0.2178115394792286     -0.7602487214789875      0.2866984682229212
                   122.0      -4.949600000000004    -0.10387651114767849     -0.6179968645452618      0.4752507980588463
                   123.0      -4.678100000000008    -0.14247078041548633     -0.6410011483351212      0.6069100038845965
                   124.0     -4.4066000000000045      -0.025370108640832     -0.6835859009342329       0.506199141828456
                   125.0      -4.135100000000008     0.10040936924245969     -0.6577204796655707     0.49969578079432686
                   126.0     -3.8636000000000053    -0.17438658467565915     -0.7752588522348418      0.8365951862794279
                   127.0      -3.592100000000009    -0.22197199150611624     -0.6446843089510281      0.6935771918882508
                   128.0      -3.320600000000006    -0.15046404352619547     -0.7283821242671848      0.6605587588110718
                   129.0      -3.049100000000003    -0.06452636720986504     -0.6366155830315847       0.699552858166458
                   130.0     -2.7776000000000067    -0.28944790116021935     -0.8803655057770499      0.5226244358275495
                   131.0     -2.5061000000000035     -0.1441239628186537     -0.9008429433584411      0.7039848583393893
                   132.0     -2.2346000000000075    -0.18761503945849967     -0.7934526124030441      0.7060867364876765
                   133.0     -1.9631000000000043     0.16766309479169195     -0.7488676821720048      0.7401554728621847
                   134.0     -1.6916000000000082   -0.023599532847985216     -0.9573111062668005      0.9233908011995838
                   135.0      -1.420100000000005    -0.12808511686706225     -0.7527391916519406      0.8922720692437245
                   136.0      -1.148600000000009    0.057471590151472185     -0.8500407503775733      0.7728591964162532
                   137.0     -0.8771000000000058   -0.018601231277223462     -0.9235787213169289      0.8569794625015656
                   138.0     -0.6056000000000026   -0.026932764753244243     -0.7686426962293496       0.965344441625834
                   139.0     -0.3341000000000065     0.07455051351996644     -0.8090692018032968      0.9301529233971589
                   140.0    -0.06260000000000332    -0.04893663250500069     -0.9239864299747609      0.8894447697502478
                   141.0     0.20889999999999276    -0.08877593245351534     -0.6250727100142655      0.8312807278881594
                   142.0     0.48039999999999594    0.001297601967621631     -0.7796949812331633                     1.0
                   143.0       0.751899999999992  -0.0045122922898492845     -0.8109985637392612       0.759408702131569
                   144.0      1.0233999999999952    -0.11374151532441701     -0.6858054348412992      0.6731992734342565
                   145.0      1.2948999999999913     -0.1077003390414788     -0.6936820530317647      0.6083996289606513
                   146.0      1.5663999999999945    -0.14889547832503425     -0.8063605289906235      0.8179885420302516
                   147.0      1.8378999999999976     -0.1291847678963478     -0.7696863883408867       0.844572913746067
                   148.0      2.1093999999999937    -0.17892175551974532     -0.6327330385784506      0.5430106193801304
                   149.0       2.380899999999997    -0.15475805744208415      -0.533739311336717      0.6118379099727316
                   150.0       2.652399999999993    -0.08322106056833434     -0.6011991267402976       0.727104246416921
                   151.0       2.923899999999996     -0.2303419578271999     -0.6334992837483782       0.708959176134973
                   152.0      3.1953999999999922    -0.11757699898481633     -0.4479038232912984      0.8666197463377665
                   153.0      3.4668999999999954     0.07307341988928329    -0.10952859735247955       0.937106414415858
                   154.0      3.7383999999999915    -0.05874525611455894    -0.33403420043757137      0.9355932655976716
                   155.0       4.009899999999995   -0.010989754134133278    -0.43300874423343316      0.9465934760397972
                   156.0       4.281399999999998      0.2396205661420474    -0.12737869883854103      0.8523535504002533
                   157.0       4.552899999999994       0.130052523214502   -0.008792168920408017      0.7405839864350661
                   158.0       4.824399999999997     0.19606624531389727    0.031757832307505396      0.9506052277384339
                   159.0       5.095899999999993     0.14689103750477273    -0.03725701962255812      0.7433025680932864
                   160.0       5.367399999999996    -0.06695934863239472     0.16661162429794274      0.7123268859206591
                   161.0      5.6388999999999925     0.28075359503182185     0.14790157730804765      0.8458349307225794
                   162.0       5.910399999999996     0.22452780696917785     0.15186614660815678      0.6277355092159029
                   163.0       6.181899999999992     0.18295231645660692       0.520335071796751      0.8628133505501696
                   164.0       6.453399999999995       0.663219605024274     0.21764102567448163      0.8589758016986686
                   165.0       6.724899999999998      0.7494467709246493       0.671266366040058      0.7415433736479413
                   166.0       6.996399999999994      0.4330533106092602      0.7176571187247589      0.5430932703659977
                   167.0       7.267899999999997                     nan                     nan                     nan
                   168.0       7.539399999999993     0.08804040927644152      0.5511613575837657      0.2108000679009638
                   169.0       7.810899999999997     0.14699077498415747      0.8054583800809496     0.18873034734394703
                   170.0       8.082399999999993     0.26802729948020954      0.5811184156298594     0.33273633890464555
                   171.0       8.353899999999996                     nan                     nan                     nan
                   172.0       8.625399999999992   -0.024731938105627904      0.7679006971507789      0.2593537074371265
#-----------------------------------------------------------------------------------------------------------------------
# experiment: sac6_and_sla1_raw_trajectories
# path: /Users/andreapicco/Google Drive/RESEARCH/EvoCellBio/Protein_tracking/Data/Sla1/24_degree/Sc/sac6_and_sla1_raw_trajectories
# file: 22.W2data.txt
# protein: Sla1-GFP
# date: 23/01/19
# notes: the trajectory of the target protein
# t_unit: s
# delta_t: 0.2715
# coord_unit: pxl
# intensity_normalisation: Absolute
# aligned_to: ../../../Fimbrin/24_degree/Sc/fim1_sc_24deg.txt
# alignment_angle: -2.4980945558716465 rad
# alignment_translation: [22.82325555 77.9118733 ] pxl
# alignment_lag: -38.07260000000001 s
