#               frames                 t (s)               x (pxl)               y (pxl)                     f
                 118.0     27.79300000000004   -1.3854520336676615   -0.4674153349648975   0.07875782085862382
                 119.0    28.052000000000046                   nan                   nan                   nan
                 120.0     28.31100000000004   -1.2113276196238871   -0.5434867216218606   0.07253272901655407
                 121.0     28.57000000000004   -1.1130848632121655   -0.6059952102104234   0.11123537538390152
                 122.0     28.82900000000004   -0.9808950581047071   -0.5350645802847538                   0.0
                 123.0    29.088000000000036   -1.2471773614988138  -0.12785130362972552   0.14850152868138675
                 124.0    29.347000000000037   -1.2321696877559276   -0.5615663568222828    0.2040590559223852
                 125.0    29.606000000000037   -0.9311827846209582   -0.6198897189529333   0.21209112533802382
                 126.0    29.865000000000038   -1.0695122733077227    -0.585854191020232   0.14696635515960263
                 127.0    30.124000000000038    -1.319059964772805   -0.2836954931734965  0.054008071022225566
                 128.0    30.383000000000038   -0.9750348456126972  -0.44693335715385274    0.0664119441434017
                 129.0     30.64200000000004   -1.3189700067698453   -0.8968447689159973   0.25186583959752223
                 130.0     30.90100000000004     -1.24019772976402  -0.37949016164424165   0.15880974062622263
                 131.0     31.16000000000004   -1.2540783124478168   -0.7430108432915858    0.1136967601649521
                 132.0     31.41900000000004    -1.220856050001359   -0.5190314554498912  0.056684129067106154
                 133.0     31.67800000000004   -1.1796310680492468   -0.4905499699716529    0.2013527012475286
                 134.0     31.93700000000004   -1.2309163082669698   -0.5050222811834004    0.3674795108219562
                 135.0     32.19600000000004   -1.1674698710743172   -0.5494249244781315   0.21164922734937375
                 136.0     32.45500000000004   -1.0655218325724718  -0.28385445342641447    0.0927444764915464
                 137.0     32.71400000000004   -1.0355870730871715  -0.29732233731948554     0.154488575573645
                 138.0     32.97300000000004   -1.4120165202800194   -0.2747940420427142   0.34601737814695416
                 139.0    33.232000000000035   -1.3079360384089114   -0.4696905228792616    0.3286998244526697
                 140.0    33.491000000000035   -1.2204143687533673   -0.8079528462167929   0.14132685389406907
                 141.0    33.750000000000036   -1.1788598539058626   -0.2706031292197508    0.4405541167060811
                 142.0    34.009000000000036   -1.2054437310256816  -0.21821405556620732    0.3430517708813029
                 143.0    34.268000000000036   -1.1956765203740218    -0.548877410749526     0.295685586767817
                 144.0     34.52700000000004   -1.3373493168361819  -0.46190201197147474   0.37093635630221833
                 145.0     34.78600000000004   -1.2360647320960823   -0.2448057438436706   0.23898154848672654
                 146.0     35.04500000000004   -1.3125827406542214   -0.6595905111342546   0.42628959769537866
                 147.0     35.30400000000004   -1.1769074913536741    -0.611292226928299   0.38977306958529967
                 148.0     35.56300000000004    -1.081429112269305  -0.41680901496023637   0.27101071288835943
                 149.0     35.82200000000004   -1.1630682138846424   -0.7584167128717922    0.3273317152047533
                 150.0     36.08100000000004   -0.8610183134384499  -0.35197137046468185   0.38008204327397493
                 151.0     36.34000000000004   -1.1854642816610124  -0.45159777891700514     0.427792743351188
                 152.0     36.59900000000004   -1.1955238276007663   -0.7224461297196001   0.37722766792123563
                 153.0     36.85800000000004    -1.131715966281007   -0.4375982644321681    0.4176515956802198
                 154.0     37.11700000000004    -1.028725325668745   -0.5784370253017528    0.4100449775112443
                 155.0     37.37600000000004    -1.106933437807612   -0.5106068275084823    0.6025540924687771
                 156.0     37.63500000000004   -1.1953027319222826   -0.6239192774320088   0.41003978380324846
                 157.0     37.89400000000004    -1.142396801464841   -0.4946660576677431   0.47445171755923427
                 158.0     38.15300000000004   -1.0905690276858024   -0.5317706159067228    0.3875432376190657
                 159.0     38.41200000000004   -1.1327584893565614  -0.30882976870967127    0.4789585576726647
                 160.0    38.671000000000035   -1.1862539930862113   -0.6918781195607409   0.44335222688886494
                 161.0    38.930000000000035    -1.314609992688176   -0.4920547069305172    0.4794588848762684
                 162.0    39.189000000000036   -1.1254962713712189   -0.6633680971650477    0.5754399070672516
                 163.0    39.448000000000036   -1.1925889717562939   -0.6914256261909202   0.49407700883969086
                 164.0    39.707000000000036    -1.056476184083337  -0.49529175870013376    0.4767823940223883
                 165.0     39.96600000000004   -1.2382362635591306   -0.5941189471957671     0.555683041850899
                 166.0     40.22500000000004   -1.2557040470945822     -0.52056222767024    0.5923826481678329
                 167.0     40.48400000000004   -1.1468268493827338   -0.3860643096364811    0.6743233464099359
                 168.0     40.74300000000004    -1.010879425089513   -0.4896021622945028   0.40457340613757786
                 169.0     41.00200000000004   -1.0892546667233631   -0.4899187106064744    0.6411346866982213
                 170.0     41.26100000000004   -1.1849342132540386   -0.4958282832379268    0.7898980648244005
                 171.0     41.52000000000004   -1.1444167748831404   -0.6952615460825768    0.9178853125400348
                 172.0     41.77900000000004   -1.1476181979843574   -0.6616978190677401    0.6745886583267257
                 173.0     42.03800000000004    -1.315049569652814   -0.6516035633635653                   1.0
                 174.0     42.29700000000004   -1.2764722840263545   -0.5552901088429536    0.7945447022447204
                 175.0     42.55600000000004   -1.2060699105023929   -0.4841864491115899    0.9335192392256526
                 176.0     42.81500000000004    -1.223228390842877   -0.6287582933289428    0.5620829885288301
                 177.0     43.07400000000004    -1.236899668755953   -0.5064633499738562    0.7051705094335049
                 178.0     43.33300000000004   -1.0569001357024348   -0.5098974831267071      0.89847209766941
                 179.0     43.59200000000004   -1.0137048465517324   -0.6146881623886884    0.7706194535526693
                 180.0     43.85100000000004    -1.203778891210547   -0.6065607253979266    0.8620109691112873
                 181.0     44.11000000000004   -1.0510126726098008   -0.6087827063672506    0.8743066399825491
                 182.0    44.369000000000035    -1.112763685270096   -0.5468097763459099    0.8125119022474905
                 183.0    44.628000000000036    -1.030984890370405   -0.5929463256073859    0.6827639875212509
                 184.0    44.887000000000036   -1.0127138775043107  -0.49748515717830344     0.697453092160617
                 185.0    45.146000000000036   -1.0867741134501756   -0.4954852737704698    0.8181552987940209
                 186.0     45.40500000000004   -1.0073064017081066   -0.4153446280375874    0.7899850594333317
                 187.0     45.66400000000004   -0.9336680156950194   -0.6102607244826714    0.8352369715834921
                 188.0     45.92300000000004   -0.8344562845717576   -0.6913087374720277    0.9034420434124739
                 189.0     46.18200000000004   -0.8425960561332744    -0.695144553281736    0.9335936823735936
                 190.0     46.44100000000004   -0.9802552476629103   -0.6330604084184017    0.9788793536257272
                 191.0     46.70000000000004   -0.7538647393058255   -0.7453611686999722    0.8020288354667929
                 192.0     46.95900000000004   -0.9774561801261967   -0.5964760355944065    0.8668913233914219
                 193.0     47.21800000000004   -0.9184738379008621    -0.826212316896715    0.8006503388028848
                 194.0     47.47700000000004   -0.8410644575035775   -0.7248164495918274    0.9549969530246422
                 195.0     47.73600000000004   -0.7499792240342487   -0.5519719784744694    0.7745991323045174
                 196.0     47.99500000000004   -0.7248382342264961   -0.7372445226019977    0.8582489932862666
                 197.0     48.25400000000004   -0.5542104602935183   -0.6376519000455403    0.8811103974571606
                 198.0     48.51300000000004   -0.4938336368368823   -0.5149824589679497     0.834487346396086
                 199.0     48.77200000000004   -0.5336300783826857  -0.41073902732695444    0.9239745023562121
                 200.0     49.03100000000004   -0.4461532454595698   -0.4367922185852393    0.7647916803722848
                 201.0     49.29000000000004   -0.5270738032830451   -0.5748360551392011    0.9309652333186755
                 202.0     49.54900000000004   -0.4025867254168958  -0.44846136150023597    0.9949590735809924
                 203.0    49.808000000000035  -0.47747486476940537  -0.24643164645485172    0.7971212142196799
                 204.0    50.067000000000036   -0.5043004318404769   -0.3893108630866493      0.85864890880195
                 205.0    50.326000000000036    -0.357487149675606  -0.28817843540403487    0.9159428657495731
                 206.0    50.585000000000036  -0.43570166259247856   -0.2901817531962507    0.8118999103219752
                 207.0     50.84400000000004   -0.4083750323651145   -0.2552497681765544    0.6592105217599051
                 208.0     51.10300000000004   -0.4540130152877566   -0.2749338938557315   0.43685143571401364
                 209.0     51.36200000000004  -0.16068557596523192  -0.15440236102929816    0.5706145195300732
                 210.0     51.62100000000004  -0.13564961975154688   -0.1912671849467813    0.5948513907018775
                 211.0     51.88000000000004  0.020100367065353453  -0.15381270388591872    0.5180546274207006
                 212.0     52.13900000000004   -0.2192592266387834   0.38647107422961824   0.39502520679613995
                 213.0     52.39800000000004   -0.8841244813860101    0.8377150245978129     0.411189324506338
                 214.0     52.65700000000004   -1.1153978636009043    1.0730961899846818   0.38730865514125146
                 215.0     52.91600000000004   -1.2316619826485322     1.078295003702891    0.3901214808300237
                 216.0     53.17500000000004    -1.254799556653012    0.9606185506326881    0.2719287007766324
                 217.0     53.43400000000004   -0.9996169945554101     1.482187551673107   0.18773523169131365
                 218.0     53.69300000000004   -0.9309591295997564    0.9805845357564067   0.04044729944496574
                 219.0     53.95200000000004   -0.8631864500731297    1.5755506461658797    0.0618427795340205
                 220.0     54.21100000000005                   nan                   nan                   nan
                 221.0     54.47000000000004   -0.9479951531661897     1.505427415088917   0.02354264553635421
#-------------------------------------------------------------------------------------------------------------
# experiment: sac6_and_sla1_raw_trajectories
# path: /Users/andreapicco/Google Drive/RESEARCH/EvoCellBio/Protein_tracking/Data/Sla1/24_degree/Sc/sac6_and_sla1_raw_trajectories
# file: 22.W2data.txt
# protein: Sla1-GFP
# date: 23/06/01
# notes: the trajectory of the target protein
# t_unit: s
# delta_t: 0.259
# coord_unit: pxl
# intensity_normalisation: Absolute
# aligned_to: ../../../Fimbrin/24_degree/Sc/fim1_sc_24deg.txt
# alignment_angle: 3.1016241840935916 rad
# alignment_translation: [102.84042151  94.63778519] pxl
# alignment_lag: -2.7689999999999637 s
