#                frames                  t (s)                x (pxl)                y (pxl)                      f
                  118.0     2.1550999999999974    -1.0061146468766111   -0.15318561458131796       0.39895133850613
                  119.0     2.4266000000000005    -0.5683400743661338    -0.6619579193005052     0.2587007399139468
                  120.0     2.6981000000000037     -0.632801160058861     0.1353475530250705    0.14276918645471412
                  121.0                 2.9696   0.007137941220136668    0.48438243123675306     0.3692827695465101
                  122.0      3.241100000000003                    nan                    nan                    nan
                  123.0      3.512599999999999    -0.3733624952622421   -0.21221193613691014   0.016942409131006284
                  124.0     3.7841000000000022    0.06010725831924901    0.15160134325239483     0.5447998991844745
                  125.0      4.055599999999998   -0.11728120609872406   -0.31139777439194916     0.3248375249788468
                  126.0     4.3271000000000015   -0.23131414245716542    0.14074736064156923    0.39158100347453506
                  127.0      4.598599999999998   -0.07749813459356858   -0.04817389581968712                    1.0
                  128.0      4.870100000000001   -0.09637448387177017   0.056082233453025765     0.6744108592723281
                  129.0      5.141600000000004                    nan                    nan                    nan
                  130.0                 5.4131   -0.03852490808519349   -0.13825090016889874     0.8290555745584823
                  131.0      5.684600000000003    0.27962377020323004    0.09027227689487916     0.7212909788107371
                  132.0      5.956099999999999     0.5395273936861287  -0.036393942459227446     0.9954119934469912
                  133.0     6.2276000000000025     0.7517670105040963    -0.1271887755333836     0.5454380974670101
                  134.0     6.4990999999999985     1.0754017351474374    -0.6450051714103608    0.31287288242389333
                  135.0      6.770600000000002     0.5421743657885969     -0.739142470110977     0.6470178407474753
                  136.0      7.042099999999998     1.3571369238558901    -0.6450946444134757     0.3647235674293842
                  137.0      7.313600000000001     0.7192985414178423    -1.1454475565813027                    0.0
                  138.0      7.585100000000004                    nan                    nan                    nan
                  139.0                 7.8566     0.9110179678615964      0.595746499493174    0.03415305957117389
#------------------------------------------------------------------------------------------------------------------
# experiment: sac6_and_sla1_raw_trajectories
# path: /Users/andreapicco/Google Drive/RESEARCH/EvoCellBio/Protein_tracking/Data/Sla1/24_degree/Sc/sac6_and_sla1_raw_trajectories
# file: 25.W1data.txt
# protein: Sac6-mCherry
# date: 23/01/19
# notes: the trajectory of the reference protein
# t_unit: s
# delta_t: 0.2715
# coord_unit: pxl
# intensity_normalisation: Absolute
# aligned_to: ../../../Fimbrin/24_degree/Sc/fim1_sc_24deg.txt
# alignment_angle: 2.8090430867823684 rad
# alignment_translation: [74.61724042 68.24366631] pxl
# alignment_lag: -29.8819 s
