#                 frames                   t (s)                 x (pxl)                 y (pxl)                       f
                   206.0      0.7495999999999938     -0.7019217495331134      0.1578275920085659     0.08604855550066613
                   207.0      1.0211000000000183                     nan                     nan                     nan
                   208.0      1.2926000000000073                     nan                     nan                     nan
                   209.0      1.5640999999999963     -0.6206720848703782    -0.08721200257604167     0.03504242397967392
                   210.0      1.8355999999999923    -0.31105219182288124    -0.10163935209878261      0.2540304777247011
                   211.0      2.1070999999999955      -0.533490607518118   -0.018294566011153535     0.28533648827336633
                   212.0      2.3785999999999987    -0.20633842303168137    -0.09816059505831731      0.3676653633904501
                   213.0       2.650099999999995    -0.11956763573257945   -0.013638479109332025      0.3431415612009308
                   214.0       2.921599999999998  -0.0032839933300579105     0.12280920026119091      0.5611050960876234
                   215.0       3.193099999999994    -0.03894511682236157      0.1378124211242806     0.42349479583210214
                   216.0      3.4645999999999972     -0.3657021010073862    0.001673072604766901     0.47478158619401883
                   217.0      3.7360999999999933    -0.19256448161056028    -0.21970679601387033      0.5756217753230904
                   218.0      4.0075999999999965    -0.11374004033447704    -0.14932286770977754      0.6720277068841659
                   219.0       4.279099999999993     -0.2497674471044462     0.11690227276430676       0.935671320355334
                   220.0       4.550599999999996      0.3416776922658471    -0.21340473152603323      0.7942504488449823
                   221.0       4.822099999999999    -0.07167326604394475    -0.12423969514752287      0.8861567118344857
                   222.0       5.093599999999995     -0.3038424467062413    0.032381846102680356      0.6601301298674629
                   223.0       5.365099999999998    -0.18791930111086685   0.0028714206182343105                     1.0
                   224.0       5.636599999999994      0.1126087905826978    -0.12082398519791226      0.8485731464251935
                   225.0      5.9080999999999975     0.25478688942278893     0.10647015655724701      0.8098254933301693
                   226.0      6.1795999999999935     0.21535679949283804      0.3171786745177485      0.5862069490064182
                   227.0       6.451099999999997     -0.1520009214592477      0.6267880545078945     0.30070389085185284
                   228.0       6.722600000000007                     nan                     nan                     nan
                   229.0       6.994099999999996     0.20153896218387501      1.4756832263698847                     0.0
                   230.0       7.265599999999999      0.5586227802044732      1.0658026116284276     0.08113740608101762
                   231.0       7.537099999999995     0.29162003201915354     0.23568052741219958     0.26448673088353913
                   232.0       7.808599999999998      0.9169137807299279     0.06254107355997718     0.33963903013735935
                   233.0       8.080100000000009                     nan                     nan                     nan
                   234.0       8.351599999999998    0.004231155800113129      0.5663178338350505    0.016521982850908192
                   235.0       8.623099999999994      0.5371120129636182     0.31559449353805036     0.08037262975432465
                   236.0        8.89459999999999     0.24027580460546005      0.5588209321843252      0.2175957881398442
                   237.0       9.166099999999993       0.431929198449879       0.429751948393033      0.3011191746652535
                   238.0       9.437599999999996      0.4508278444034346      0.9355380917442702     0.11312110505045209
                   239.0                  9.7091      1.2621620260912891      1.2241047334146025   0.0023726700657570716
                   240.0       9.980599999999988                     nan                     nan                     nan
                   241.0      10.252099999999992                     nan                     nan                     nan
                   242.0      10.523599999999995      0.3529849182918241       0.848681244950729    0.010625104819231766
#-----------------------------------------------------------------------------------------------------------------------
# experiment: sac6_and_sla1_raw_trajectories
# path: /Users/andreapicco/Google Drive/RESEARCH/EvoCellBio/Protein_tracking/Data/Sla1/24_degree/Sc/sac6_and_sla1_raw_trajectories
# file: 26.W1data.txt
# protein: Sac6-mCherry
# date: 23/01/19
# notes: the trajectory of the reference protein
# t_unit: s
# delta_t: 0.2715
# coord_unit: pxl
# intensity_normalisation: Absolute
# aligned_to: ../../../Fimbrin/24_degree/Sc/fim1_sc_24deg.txt
# alignment_angle: 1.7277805983760521 rad
# alignment_translation: [ 97.18835777 -30.46410611] pxl
# alignment_lag: -55.17940000000001 s
