#                frames                  t (s)                x (pxl)                y (pxl)                      f
                  145.0    -0.5622000000000114    -0.6429188378932222    0.10210108542733565                    0.0
                  146.0    -0.2907000000000082    -0.2907914072109028    0.09380221158386348   0.011961104311165507
                  147.0   -0.01920000000000499    -1.2915667766893995   -0.11730982248852229     0.0231952944376445
                  148.0     0.2522999999999982                    nan                    nan                    nan
                  149.0     0.5237999999999943                    nan                    nan                    nan
                  150.0     0.7952999999999903    -0.5172682051255242  -0.053308163493298366    0.05691554467564259
                  151.0     1.0667999999999935   -0.43247572592950956   0.024090824922524234     0.1984863321093431
                  152.0     1.3382999999999896    -0.5279006693297346   0.023825528742619895    0.21504011967904257
                  153.0     1.6097999999999928    -0.6905359003783209   -0.12694306626897855     0.2151550387596899
                  154.0     1.8812999999999889   -0.45926753501584283   -0.08334249491298351     0.4212960696314429
                  155.0      2.152799999999992    -0.4738125403870006   -0.15618168056710147     0.5639970080239357
                  156.0     2.4242999999999952    -0.6240925912833495     -0.153316844866481    0.43597885216918264
                  157.0     2.6957999999999913   -0.42799800029127777     0.1476896661189926     0.6809655922752619
                  158.0     2.9672999999999945    -0.1303798463090784   -0.04114820048680201     0.6763967088263293
                  159.0     3.2387999999999906    -0.4536032044378997     0.2421032963934806     0.5685522915816673
                  160.0     3.5102999999999938   -0.10735381829527224  -0.057425404144282766     0.6369879640962872
                  161.0       3.78179999999999   -0.24234985868189352    -0.1994179117844368     0.5831646946824426
                  162.0      4.053299999999993   -0.11250427328471257   -0.22217157260777753      0.520265197878417
                  163.0      4.324799999999989    -0.6061267992477495   -0.08693336030493981     0.6520712634298926
                  164.0      4.596299999999999                    nan                    nan                    nan
                  165.0     4.8677999999999955    0.28275496065633465   -0.09125221383553139     0.7321171630626955
                  166.0     5.1392999999999915    0.06411228121811963    0.25341049219760237     0.5811226710186318
                  167.0      5.410799999999995    0.08351326928770053   -0.16357328603835697      0.722891336869305
                  168.0      5.682299999999991     0.4957840640971378   -0.09823002045425255                    1.0
                  169.0      5.953799999999994    0.15005682835423872    0.09135083480695982     0.8731079151366788
                  170.0      6.225299999999997                    nan                    nan                    nan
                  171.0      6.496799999999993    0.20045821065074154     0.2918957996168672     0.8675200598395211
                  172.0      6.768299999999989     0.0561738212205265    0.41416088057928846     0.7198276213790288
                  173.0     7.0397999999999925     0.2401870901584724   0.008228664237989847     0.5269002447980415
                  174.0      7.311299999999996    0.34443416042047037   -0.09860897436279004     0.5827002583979328
                  175.0      7.582799999999992     0.2962926976045219    0.37365300265308576     0.6417628858969129
                  176.0      7.854299999999995    0.12383574401948838    0.45775539280442956     0.4197640418876649
                  177.0      8.125799999999991    0.20270352850017037   -0.01156913804933879     0.5190038079695363
                  178.0      8.397299999999994     0.1809168319739891    0.14252422621879646     0.2639779681762546
                  179.0       8.66879999999999    0.33027109412357536    0.45676781171857783    0.17879164966680267
                  180.0      8.940299999999993    -0.0859957424283655    0.44955760748851503    0.18952672378620972
                  181.0       9.21179999999999    0.46731719005915284    0.14113636574586508     0.2630065959472324
#------------------------------------------------------------------------------------------------------------------
# experiment: sac6_and_sla1_raw_trajectories
# path: /Users/andreapicco/Google Drive/RESEARCH/EvoCellBio/Protein_tracking/Data/Sla1/24_degree/Sc/sac6_and_sla1_raw_trajectories
# file: 27.W1data.txt
# protein: Sac6-mCherry
# date: 23/01/19
# notes: the trajectory of the reference protein
# t_unit: s
# delta_t: 0.2715
# coord_unit: pxl
# intensity_normalisation: Absolute
# aligned_to: ../../../Fimbrin/24_degree/Sc/fim1_sc_24deg.txt
# alignment_angle: 0.3310093779609752 rad
# alignment_translation: [  5.05135678 -88.19231692] pxl
# alignment_lag: -39.92970000000001 s
