#                frames                  t (s)                x (pxl)                y (pxl)                      f
                    1.0     -19.02420000000001    -1.0178714499405501   -0.45787980534650075                    0.0
                    2.0     -18.75270000000001    -1.6179826142036902    -0.3668424778607786    0.07974705149534454
                    3.0     -18.48120000000001                    nan                    nan                    nan
                    4.0    -18.209700000000012    -0.8255638640365532   -0.11228193965318667    0.08318983346726656
                    5.0     -17.93820000000001    -1.1005764762376131    -0.1953941675161559    0.14562943444956492
                    6.0    -17.666700000000006                    nan                    nan                    nan
                    7.0     -17.39520000000001                    nan                    nan                    nan
                    8.0     -17.12370000000001     -1.261486666492388   -0.43167411028990443     0.1733047123230092
                    9.0     -16.85220000000001    -1.3845260885235149   -0.17641988959366728    0.12547992732984561
                   10.0     -16.58070000000001     -1.172998218778126   -0.16312592547549087    0.28840162712144424
                   11.0     -16.30920000000001    -1.0307972991342353    -0.4666599101648998    0.15538985496946872
                   12.0     -16.03770000000001     -1.246646025757336  -0.049804655736949144    0.12653560041862483
                   13.0     -15.76620000000001    -1.0369435854901212   -0.21651796528353628    0.21232513516320714
                   14.0     -15.49470000000001    -0.9959946577709644   -0.07092576005381801    0.25678306403951057
                   15.0     -15.22320000000001    -1.0123812933149878     -0.270664899897632    0.09822558239686381
                   16.0     -14.95170000000001    -1.0396870306238384    -0.3651365124329331    0.05725173915763604
                   17.0     -14.68020000000001    -0.7083816158604108   -0.27539439590771053    0.24345109129749995
                   18.0     -14.40870000000001    -0.8266449572166152    -0.2806673270908604    0.29351052605684225
                   19.0     -14.13720000000001    -1.1671723267046659   -0.26739891518302983    0.08133663519691826
                   20.0    -13.865700000000011    -0.9930784929169576   -0.23453313773754303    0.21899871411971866
                   21.0    -13.594200000000011    -1.6445726775730165   -0.26082270299299637     0.3082699048740147
                   22.0     -13.32270000000001    -0.9970835799838582    -0.3133500815985286     0.5569295098287537
                   23.0     -13.05120000000001    -0.5718330660647624   -0.04486480513526914      0.202120700242902
                   24.0     -12.77970000000001    -1.2902354558019553    -0.4136581361770624    0.29506123572062437
                   25.0     -12.50820000000001    -1.4534176381462416   -0.38727467676858396     0.5714477481302498
                   26.0     -12.23670000000001    -0.8400093763797116    -0.3662797917349394    0.23095855480905253
                   27.0     -11.96520000000001    -1.1481761281291014    -0.6125438961050733    0.42570655082203396
                   28.0     -11.69370000000001    -1.2005826050219497   -0.48358294091055143     0.5173162579122333
                   29.0     -11.42220000000001    -1.0258870410756558    -0.5344691996302657     0.3596018569641928
                   30.0     -11.15070000000001    -1.0474663301514724   -0.41732100771515235     0.5247636731835346
                   31.0     -10.87920000000001    -1.0592840913062531    -0.5574098867144741    0.39086933889232073
                   32.0     -10.60770000000001    -0.8994826774838884     -0.185472729979125    0.16891619790043752
                   33.0     -10.33620000000001    -1.2222233089585117    -0.5216558161648592     0.4322805150567044
                   34.0     -10.06470000000001      -1.24779279687327    -0.3060982664669254    0.41486008687132625
                   35.0      -9.79320000000001    -0.8934829189465532   -0.33698301528508523    0.45425831676631173
                   36.0      -9.52170000000001    -0.9785634734758162    -0.4808732771862765     0.5297128241198825
                   37.0      -9.25020000000001    -0.9784652108978023    -0.4676655745296543     0.6603326281339913
                   38.0      -8.97870000000001    -1.0482156105846627     -0.521011928261899     0.4993297265515145
                   39.0      -8.70720000000001    -1.0594381303086777   -0.25171217074985464      0.438895175549688
                   40.0      -8.43570000000001    -1.0322418726325964    -0.4201300321464956     0.4088418998957081
                   41.0      -8.16420000000001    -0.9627220739624107   -0.29304295750529974     0.6049128280072863
                   42.0      -7.89270000000001    -0.8750066899269342    -0.6348479145166266     0.4005617298460892
                   43.0     -7.621200000000011    -0.8800109070180895    -0.3846876995896551    0.49375433916261674
                   44.0     -7.349700000000009    -0.9461990022685711   -0.49395457102428963     0.4432381344592226
                   45.0      -7.07820000000001     -1.115949471728328    -0.5076630292597457     0.5868740596582849
                   46.0      -6.80670000000001    -0.8871359385596591   -0.38333731796529236    0.37791031395037356
                   47.0      -6.53520000000001     -1.159120368920071    -0.3259534218399409     0.4573961805043056
                   48.0     -6.263700000000011    -1.3902167592622874    -0.4035181653500928     0.5554577630542359
                   49.0     -5.992200000000009     -1.689092415480502   -0.41070014294193413    0.48558350234428665
                   50.0      -5.72070000000001    -1.6576252997308032    -0.3370023382297589    0.36562976244925866
                   51.0      -5.44920000000001      -1.53534831223579    -0.4228931584211182     0.2542204145794649
                   52.0      -5.17770000000001     -1.142975291738523    -0.2960502904353248     0.5365443288549226
                   53.0     -4.906200000000009    -0.9157172527561528   -0.44025296741077824     0.7288784900837796
                   54.0     -4.634700000000009    -1.0038289461870562   -0.28957918197767896    0.46754351918160425
                   55.0      -4.36320000000001    -1.2291078921983996   -0.49520055002344776     0.6058913604273227
                   56.0      -4.09170000000001    -0.7551706544757479    -0.3158453661735976     0.6854015232548745
                   57.0    -3.8202000000000105     -1.037563836612918   -0.45043408952157193     0.5563943844022782
                   58.0     -3.548700000000009    -0.8075222784668838   -0.29938625460912505      0.974067372351934
                   59.0     -3.277200000000011     -1.405701329533052    -0.3023153646401795     0.6417101418112748
                   60.0     -3.005700000000008    -0.9756679126362542    -0.4842796747591649     0.6820182671533208
                   61.0    -2.7342000000000084    -1.1557573022015077   -0.47038694939586634     0.5235822668787731
                   62.0    -2.4627000000000088    -1.2612666118474323    -0.5243977785141141     0.5557930516301888
                   63.0     -2.191200000000009     -1.540073939862637   -0.24835467400139777     0.5497201980389262
                   64.0    -1.9197000000000095    -1.1003619201422055    -0.4338497257396554     0.5695259128869257
                   65.0    -1.6482000000000099    -1.0538057719080314    -0.5312359075448683     0.6786368332722887
                   66.0    -1.3767000000000102    -1.1272415601864623     -0.450408483455476     0.6890083050737299
                   67.0    -1.1052000000000106     -0.927954658172709    -0.4559249257654727     0.5775467202156536
                   68.0     -0.833700000000011    -1.1471648774070502    -0.3150452608729495     0.5917904106252463
                   69.0    -0.5622000000000078     -1.080590321942175    -0.3918797494158923    0.44723608628335637
                   70.0    -0.2907000000000082    -0.9874429962739981   -0.49843130269816527     0.7864885992773073
                   71.0  -0.019200000000008544    -0.7362091776664812    -0.6049693231457098     0.8085077046520682
                   72.0     0.2522999999999911    -0.9870479523159403    -0.6159554517794206     0.6746680369764987
                   73.0     0.5237999999999907    -0.9759731065842061    -0.3856725520820703                    1.0
                   74.0     0.7952999999999903    -1.0056649208186883    -0.3687720769566596     0.6508516147607148
                   75.0       1.06679999999999    -0.7801999859080553    -0.5524055778619754     0.9567022181890407
                   76.0     1.3382999999999896    -1.0367835934533005    -0.5143356121138538     0.9439491041660213
                   77.0     1.6097999999999892    -0.8850113120189533   -0.38553165683214274     0.7424133367105152
                   78.0     1.8812999999999924     -0.791671796008913   -0.49287218912078856     0.5873654517922449
                   79.0      2.152799999999992    -0.7717351564049437     -0.235119539254093     0.5799399031672015
                   80.0     2.4242999999999917    -0.6418472572049438    -0.3491762625912571     0.5952283333424443
                   81.0     2.6957999999999913    -0.6483103108969743  -0.029944931379901618     0.8821879766245552
                   82.0      2.967299999999991    -0.7395111442793549   -0.06464759662853936     0.7251459750489417
                   83.0     3.2387999999999906    -0.7173270102373834   -0.18870014163189808    0.33722012970565673
                   84.0       3.51029999999999    -0.6829821431487133   -0.05729319555345569     0.7908904766503698
                   85.0       3.78179999999999  -0.016600372880475334   -0.10902806356502737     0.6344905041051592
                   86.0     4.0532999999999895     -0.676583073468386    -0.1446344556555772     0.9876909003773817
                   87.0      4.324799999999993   -0.42195961058656906   -0.07702209214805578     0.6324259282543185
                   88.0      4.596299999999992   -0.05991106826640191     0.2722825355994729     0.7112278547058539
                   89.0      4.867799999999992     0.1702174651802295   -0.12382884500793523     0.6239866176124902
                   90.0     5.1392999999999915     0.7142009342468043   -0.05902421969236116     0.3859031805644389
                   91.0      5.410799999999991     0.6348832677875293    0.16387029859926372     0.5733458945067947
#------------------------------------------------------------------------------------------------------------------
# experiment: sac6_and_sla1_raw_trajectories
# path: /Users/andreapicco/Google Drive/RESEARCH/EvoCellBio/Protein_tracking/Data/Sla1/24_degree/Sc/sac6_and_sla1_raw_trajectories
# file: 28.W2data.txt
# protein: Sla1-GFP
# date: 23/01/19
# notes: the trajectory of the target protein
# t_unit: s
# delta_t: 0.2715
# coord_unit: pxl
# intensity_normalisation: Absolute
# aligned_to: ../../../Fimbrin/24_degree/Sc/fim1_sc_24deg.txt
# alignment_angle: -1.8754435080251994 rad
# alignment_translation: [-63.96663267  35.64103432] pxl
# alignment_lag: -19.29570000000001 s
