#                frames                  t (s)                x (pxl)                y (pxl)                      f
                   69.0    -0.5622000000000078    -0.8497219379447287   -0.23913582635378106                    0.0
                   70.0    -0.2907000000000082                    nan                    nan                    nan
                   71.0  -0.019200000000008544     -1.118216129620805    0.29228835746759074    0.10282718566952219
                   72.0     0.2522999999999911                    nan                    nan                    nan
                   73.0     0.5237999999999907    -0.8231056243631016   -0.14056254648380673    0.21418193539501024
                   74.0     0.7952999999999903   -0.24295318972583146    -0.2558623383893135      0.331065182708237
                   75.0       1.06679999999999    -0.6850248939382553    0.10665488415842361     0.2879462492300276
                   76.0     1.3382999999999896     -0.536033292312375   -0.49471553167938964    0.32831097703282286
                   77.0     1.6097999999999892    -0.5799793871701695    0.20207354707525127     0.4673627344829039
                   78.0     1.8812999999999924      -0.39981589687455  -0.029878413281842597     0.3505574408986391
                   79.0      2.152799999999992    -0.4581585733259317   -0.32918223128704227      0.770847122694387
                   80.0     2.4242999999999917    -0.5611614380003189  -0.025001166534700303     0.7332691211410515
                   81.0     2.6957999999999913   -0.45400700492879764   -0.03556844121266067     0.4872834990607294
                   82.0      2.967299999999991    -0.6896242497876912   0.034345866665645985    0.45029134608394905
                   83.0     3.2387999999999906    -0.6155003441079145   2.66059397091567e-05     0.6636932659456029
                   84.0       3.51029999999999    -0.6110848730858862    0.27704716557500575     0.5960887314297958
                   85.0       3.78179999999999    -0.6054967770932436    0.03354122261636405     0.7998669525926551
                   86.0     4.0532999999999895   -0.23250852959077406    -0.3837784570478391      0.938234821500308
                   87.0      4.324799999999993    -0.2555648283414129  -0.025722089539982562     0.6928173529783108
                   88.0      4.596299999999992   -0.20010963011291238   -0.03587474433751936     0.8890168456573557
                   89.0      4.867799999999992    0.24499544937410178  -0.034210318056750566     0.9042847769279918
                   90.0     5.1392999999999915    0.27700326999827496   -0.19682732684393756     0.8605034758754732
                   91.0      5.410799999999991     0.3470110361277676     0.1755335397110116     0.9474448393674941
                   92.0      5.682299999999991     0.6122605904866987   -0.13707977506203406       0.80814582990592
                   93.0       5.95379999999999     0.7027402570695642    0.08298982964304713                    1.0
                   94.0       6.22529999999999     0.8091139941459033    -0.1587700316023941     0.6510331977671758
                   95.0       6.49679999999999     0.3889130061624684   -0.26499848110042024     0.8505909179601566
                   96.0      6.768299999999989     0.3726953658705412    -0.1837496130691605     0.5409161428303613
                   97.0     7.0397999999999925     0.7576737928648498   -0.07128580252557981     0.6726469451703123
                   98.0      7.311299999999992     0.8196398652839036    -0.1340091690005707     0.5040138996759421
                   99.0      7.582799999999992     0.9674095346074552    0.03592638971803552     0.8587669728701893
                  100.0      7.854299999999991     1.3728393038639979   -0.24632482006781942     0.5133688253951251
                  101.0      8.125799999999991     0.6490521184065017    -0.2566924617233042    0.42231695699249744
                  102.0       8.39729999999999                    nan                    nan                    nan
                  103.0       8.66879999999999     0.9754869911443649    -0.3900935020063869     0.4814470125070303
                  104.0       8.94029999999999     1.7520012801565912    -0.3742778382576475    0.20115983670845886
                  105.0      9.211799999999993                    nan                    nan                    nan
                  106.0      9.483299999999993                    nan                    nan                    nan
                  107.0      9.754799999999992      1.035101985922978     0.5358800350941806    0.14246593948112474
                  108.0     10.026299999999992     1.1078618065558175    0.28890578276921985    0.16898598937151127
#------------------------------------------------------------------------------------------------------------------
# experiment: sac6_and_sla1_raw_trajectories
# path: /Users/andreapicco/Google Drive/RESEARCH/EvoCellBio/Protein_tracking/Data/Sla1/24_degree/Sc/sac6_and_sla1_raw_trajectories
# file: 28.W1data.txt
# protein: Sac6-mCherry
# date: 23/01/19
# notes: the trajectory of the reference protein
# t_unit: s
# delta_t: 0.2715
# coord_unit: pxl
# intensity_normalisation: Absolute
# aligned_to: ../../../Fimbrin/24_degree/Sc/fim1_sc_24deg.txt
# alignment_angle: -1.8754435080251994 rad
# alignment_translation: [-63.96663267  35.64103432] pxl
# alignment_lag: -19.29570000000001 s
