#                 frames                   t (s)                 x (pxl)                 y (pxl)                       f
                   150.0      29.084000000000046     -0.8189934084909538    -0.39385506190573594      0.0660787774767444
                   151.0      29.343000000000053                     nan                     nan                     nan
                   152.0      29.602000000000046      -0.619951337725837    -0.33525237037590117                     0.0
                   153.0      29.861000000000047     -0.7404493279801017    -0.31058963766670544     0.04018896380159119
                   154.0      30.120000000000047     -0.5746198865450651     -0.3596836193583961     0.08928978773288566
                   155.0      30.379000000000048     -1.1263006636149555    -0.40799036155418733     0.12827190749263911
                   156.0      30.638000000000048      -0.701027710486926    -0.41852764141061627     0.24789585033507405
                   157.0      30.897000000000048     -1.1334798257291823    -0.40963652294892583     0.26304889954771804
                   158.0       31.15600000000005      -0.804007091997363     -0.5820539618386498     0.16877518748167675
                   159.0       31.41500000000005     -0.7355065989628855     0.03219899344854227     0.16193626903839173
                   160.0      31.674000000000042     -0.8016276863736209     -0.3817495540541991     0.05848151532118598
                   161.0      31.933000000000042     -0.5137616050978693    -0.11166613164372663     0.15506278801304588
                   162.0       32.19200000000004     -0.7296779565642453    0.058166834421339075     0.30625903964002854
                   163.0       32.45100000000004     -0.6115712206434978   -0.043291660773245866      0.3295237235530171
                   164.0       32.71000000000004     -0.8066515407533075     -0.8238943518209147     0.29524333480935877
                   165.0      32.969000000000044    -0.21849453980340172     -0.5070381205761656      0.3443026836421805
                   166.0      33.228000000000044     -0.6787364312183257     -0.4090900270632467     0.34112780551594396
                   167.0       33.48700000000005                     nan                     nan                     nan
                   168.0      33.746000000000045     -0.5867278465523214     -0.3644422950630748      0.5139952027136099
                   169.0      34.005000000000045     -0.6978917216382285     -0.2935348233771826       0.484656856586022
                   170.0      34.264000000000046    -0.29284819997499767     -0.5630448244970871      0.3734625241988901
                   171.0      34.523000000000046     -0.6251530856623475     -0.4272064477645863      0.5320669603266285
                   172.0      34.782000000000046     -0.6281546160314093     -0.6441689983567152      0.4459605897108412
                   173.0       35.04100000000005     -0.3364587010665048     -0.6185973183614486       0.563546560067531
                   174.0       35.30000000000005    -0.18655165439261623      -0.532208458607915      0.3197217752805972
                   175.0       35.55900000000005     -0.3098271403889612     -0.5602290630690483       0.430228515594027
                   176.0       35.81800000000005     -0.6002725426631628     -0.6185098197711163     0.47904755282687356
                   177.0       36.07700000000005     -0.4177625181488622     -0.6163122183995462     0.49180765150507827
                   178.0       36.33600000000005     -0.5313171588387746    -0.40660170311289434      0.6804949524398539
                   179.0       36.59500000000005    -0.44904009745181384     -0.6087333391982206      0.6499070673161178
                   180.0       36.85400000000005    -0.36967984602227943     -0.6048090851234313      0.5384183430535511
                   181.0       37.11300000000005     -0.7231143307296151     -0.5147624730790632      0.6120707988063303
                   182.0       37.37200000000004       -0.63879773671664     -0.7602081654817887      0.5496605344513718
                   183.0       37.63100000000004     -0.6776695010433542     -0.6144082927996486      0.5042570935633494
                   184.0       37.89000000000004    -0.49277419064227956    -0.38559585091395476      0.3351074103395794
                   185.0       38.14900000000004     -0.6560152089322884     -0.7125141261948649      0.5415163702620289
                   186.0      38.408000000000044     -0.5889092603316897    -0.13880298269282676      0.6839223407244398
                   187.0      38.667000000000044    -0.37085719621661895      -0.749124583499448      0.6615570971822549
                   188.0      38.926000000000045     -0.3514752888088992     -0.9570232734189439      0.5872654369706587
                   189.0      39.185000000000045     -0.3074918003774201     -0.6098264578295733     0.31066190597595167
                   190.0      39.444000000000045     -0.4226051885920441     -0.6849878757096626     0.49808055683979263
                   191.0      39.703000000000046     -0.5533609739838568     -0.5079724204618934      0.7146464430833562
                   192.0      39.962000000000046     -0.1461377505866892    -0.40090507511317597      0.5045201758056231
                   193.0      40.221000000000046     -0.2606852684309331     -0.8179831184968229      0.5600435407210241
                   194.0       40.48000000000005     -0.4005990183844119     -0.7518974872374038      0.6190544734756578
                   195.0       40.73900000000005    -0.42077137212251614    -0.20791127994840153     0.42068395690330634
                   196.0       40.99800000000005     -0.5607865738087128     -0.5948337850392598        0.64656628879599
                   197.0       41.25700000000005     -0.5032978423637644     -0.7606638850870162      0.7381433062240703
                   198.0       41.51600000000005     -0.2000373569589442     -0.7490370564549131                     1.0
                   199.0      41.775000000000055                     nan                     nan                     nan
                   200.0       42.03400000000005     -0.5292082718048476     -0.6233029895338085      0.7465558386976492
                   201.0       42.29300000000005     -0.5806228767989978      -0.577359640033638      0.8389940743469602
                   202.0       42.55200000000005    -0.24388757995642152     -0.7574831677537581      0.7828559020894909
                   203.0       42.81100000000004     -0.4292620610168001      -0.821981938630362      0.6396826423053323
                   204.0       43.07000000000004    -0.44608483154196676     -0.1748536107441261      0.7430597318675544
                   205.0       43.32900000000004     -0.3047326545159592     -0.7226668901404771      0.9889668105689935
                   206.0      43.588000000000044     -0.4747899794033401    -0.32525467274254183       0.699623105208093
                   207.0      43.847000000000044    -0.42799162859402884      -0.731773423137323      0.9474917120961309
                   208.0      44.106000000000044    -0.19788841469315344     -0.5991446243472858      0.8742906030032037
                   209.0      44.365000000000045    -0.06824180343367914     -0.6351673035221559      0.9746583082144685
                   210.0      44.624000000000045     -0.3705142068259448     -0.6029023331601984      0.7579358738051002
                   211.0      44.883000000000045     -0.0745934802119308     -0.5563835137294326       0.681469617253966
                   212.0      45.142000000000046     -0.5564493342097876     -0.6535815484831637     0.44907894784994307
                   213.0      45.401000000000046    -0.14926203103394187     -0.4600242905738732      0.7453916896101217
                   214.0      45.660000000000046    -0.42573029793820183    -0.23351916249957227      0.6836905681153266
                   215.0       45.91900000000005     -0.6949102850912254    -0.29970806637550496      0.6538394759174025
                   216.0       46.17800000000005    -0.33340882839172536    -0.38066325983541205      0.6313672916801357
                   217.0       46.43700000000005     -0.5663379320197066     -0.6314193541343691      0.5242277600966451
                   218.0       46.69600000000005     -0.5615800876221186     -0.4338547284578844       0.582087962177963
                   219.0       46.95500000000005    -0.48129314257731437     -0.2338975718158416      0.7359451260050087
                   220.0       47.21400000000005     -0.4836144311309454     -0.3685564016653906      0.8903219484188024
                   221.0       47.47300000000005    -0.24787336910110014     -0.2818395055202565      0.9009851149124529
                   222.0       47.73200000000005    -0.45731452811693885    -0.41839379038566094      0.9160661926306881
                   223.0       47.99100000000005    -0.25712033988489225    -0.31671953724793056      0.9458318949199916
                   224.0       48.25000000000005    -0.37067194350520083    -0.45380292894896357      0.7621094072435851
                   225.0       48.50900000000004      0.0478944957179408    -0.20437206600278657      0.8509929829826043
                   226.0       48.76800000000004      0.1439416503101114   -0.027877618071006083      0.8225841670031435
                   227.0      49.027000000000044     -0.2794392250014255      0.1359290152209205      0.6863608325434765
                   228.0      49.286000000000044     0.16212845474638016     0.11487410685866806      0.3913435776826561
                   229.0      49.545000000000044      0.1908274974608304  -0.0047911621723919495      0.5229021834199633
                   230.0      49.804000000000045     0.12407129223994673      0.1577517794046166      0.5136524232232901
                   231.0      50.063000000000045      0.5467948601276618    -0.07950407814429283      0.5657483998541052
                   232.0      50.322000000000045      0.2508062578008605    -0.26695492282796707      0.2845626837153718
                   233.0      50.581000000000046     0.47062394866759405     0.04729349372655278     0.48788866131800535
                   234.0      50.840000000000046       0.348941168034429      0.1972603897215528      0.3951072395597622
                   235.0      51.099000000000046       0.519341816858713    0.027497402220571843     0.19765690090745067
                   236.0       51.35800000000005     0.25097554771474506     0.31916544018455184     0.20233952084875945
                   237.0       51.61700000000005      0.3194248051917725     0.19039794223245465      0.3446544087419749
                   238.0       51.87600000000005       0.259626657268484      0.3231433150555567     0.24616650137620058
                   239.0       52.13500000000005      0.5300643661655329    -0.08571501203406129      0.3758823115617529
                   240.0       52.39400000000005       0.785374198189885     0.28076684355185577      0.3372222337430829
                   241.0       52.65300000000006                     nan                     nan                     nan
                   242.0      52.912000000000056                     nan                     nan                     nan
                   243.0       53.17100000000005      0.6663082928340742      0.4754322413985257     0.07527689710963285
                   244.0       53.43000000000006                     nan                     nan                     nan
                   245.0       53.68900000000005      1.0255098200228332      0.5208893058578674     0.12850164700868974
                   246.0       53.94800000000004      1.3931456699916396      0.4044930870287722     0.20995467422326694
                   247.0       54.20700000000004      0.8340663217887254     0.34949547208055165   0.0035123715745939495
#-----------------------------------------------------------------------------------------------------------------------
# experiment: sac6_and_sla1_raw_trajectories
# path: /Users/andreapicco/Google Drive/RESEARCH/EvoCellBio/Protein_tracking/Data/Sla1/24_degree/Sc/sac6_and_sla1_raw_trajectories
# file: 34.W2data.txt
# protein: Sla1-GFP
# date: 23/06/01
# notes: the trajectory of the target protein
# t_unit: s
# delta_t: 0.259
# coord_unit: pxl
# intensity_normalisation: Absolute
# aligned_to: ../../../Fimbrin/24_degree/Sc/fim1_sc_24deg.txt
# alignment_angle: -0.4719450408861256 rad
# alignment_translation: [-109.16246738  -23.09346572] pxl
# alignment_lag: -9.765999999999956 s
