#                 frames                   t (s)                 x (pxl)                 y (pxl)                       f
                    13.0     -1.6866000000000105      1.8435156066904739      -2.136971603830901    0.008872198667474242
                    14.0      -1.415100000000006                     nan                     nan                     nan
                    15.0     -1.1436000000000082                     nan                     nan                     nan
                    16.0     -0.8721000000000103     -0.4600478071339822     -0.7663306358595463     0.03227443422719012
                    17.0     -0.6006000000000107       -0.65619783413824    -0.13761024876664862     0.13729376135675347
                    18.0    -0.32910000000001016     -0.8372849986407687     -0.5538477518216354                     0.0
                    19.0    -0.05760000000000787                     nan                     nan                     nan
                    20.0        0.21389999999999     -0.5218215112058999    -0.17000752419504295      0.2704225538241286
                    21.0      0.4853999999999896    -0.31023703587392504       0.259921059320277      0.3376281041792853
                    22.0      0.7568999999999901     -0.6318415401851141      0.2536259615652341      0.2782375419855735
                    23.0      1.0283999999999898     -0.6540178333171411    -0.06643152272145869      0.3358511095204008
                    24.0      1.2998999999999894    -0.33223138840875777    -0.04656591681015243     0.13537095974891247
                    25.0        1.57139999999999     -0.2782487147663417    -0.11596180884573926     0.22384714498100322
                    26.0      1.8428999999999895    -0.19274348727286394      0.2927496950996158     0.26934508011673364
                    27.0        2.11439999999999     -0.2679959432056549   -0.010851441039690712      0.4830971862782886
                    28.0      2.3858999999999897    -0.15201354634642428    -0.16798356483297994      0.3823089036947304
                    29.0        2.65739999999999     -0.2835691222514356     -0.3492060975222273      0.4271518088211001
                    30.0      2.9288999999999907    -0.48088241982850377     -0.2015070555914633     0.48438962612190956
                    31.0      3.2003999999999904    -0.18484925777576677      0.0759448981862505      0.5324539397610263
                    32.0        3.47189999999999    0.023875674653552892     0.23179833269243488      0.6040345795936347
                    33.0      3.7433999999999896     -0.4653728242538051    -0.05947404785693777      0.5541866637299707
                    34.0       4.014899999999989     0.07908285107801305     -0.1598760003129911      0.6015422058256703
                    35.0       4.286399999999991     0.05468525548219816     0.18801587733456415      0.5956887836572875
                    36.0        4.55789999999999     0.15740607618573677    0.011439503932024309      0.6806426958867904
                    37.0        4.82939999999999    -0.08519280637943893    -0.08692558240518622      0.7612087440118936
                    38.0      5.1008999999999896    -0.19608328982094747    -0.07298852797795519      0.6641550575408842
                    39.0       5.372399999999991    -0.19048893927087818     -0.0882781514828963      0.8454930895875776
                    40.0       5.643899999999991     0.11219381378488436     -0.0453088789664946       0.976502174990364
                    41.0        5.91539999999999    -0.05245474321099408  -0.0071991855909772084      0.9209061175045425
                    42.0        6.18689999999999    -0.13648765192321122    -0.23462474488975715      0.7811521391993833
                    43.0      6.4583999999999895     0.11308506375014815     -0.1239950891846604      0.7198757777655415
                    44.0       6.729899999999991     0.11648185637780273    -0.34954357905955646      0.8654981553879191
                    45.0      7.0013999999999905     0.38189594674508953     -0.0289258223920541       0.863876218269919
                    46.0        7.27289999999999     0.22167397513134546   -0.010021001493456083      0.9072830791255987
                    47.0        7.54439999999999      0.5490265161470234    -0.04642626385449944                     1.0
                    48.0       7.815899999999989      0.3040999687501653     0.04015191116815231      0.6327440118936181
                    49.0       8.087399999999992      0.5445671705441697       0.178509488576708      0.9815895600462529
                    50.0       8.358899999999991                     nan                     nan                     nan
                    51.0       8.630399999999991     0.45629841641157043      0.9243715017962302      0.6227705522823632
                    52.0        8.90189999999999     0.17977097184981972      0.5588454296342746      0.4092699741203678
                    53.0        9.17339999999999      0.3847268491514626      0.5605735903647115      0.7086803590110676
                    54.0        9.44489999999999     0.34642989454918904      0.7826143379251391      0.6253008094267937
                    55.0        9.71639999999999    0.016796048618680004      0.7059478215176256      0.5262639722482242
                    56.0        9.98789999999999      0.4508138138271818      0.5641444380163279      0.4707718737954958
                    57.0      10.259399999999989       0.452251951113702      0.4611252465122817      0.6372635868068939
                    58.0      10.530899999999992      0.3214944806507489     0.02383475367243193       0.342942348989593
                    59.0      10.802399999999988       0.278216203884341      0.5520998777911217     0.23351313253675457
                    60.0      11.073899999999991      0.6965878761959345     0.29856377720540195     0.16011100710313309
                    61.0       11.34539999999999      0.3539257598644383      0.6749105054391151     0.20532481691536808
                    62.0       11.61689999999999      0.0728507749748104     0.07504655173435992     0.17568592037883374
                    63.0       11.88839999999999                     nan                     nan                     nan
                    64.0       12.15989999999999     0.34751834619132893     -0.3342283857978714     0.28008545784923733
                    65.0       12.43139999999999     0.20065433855324954    0.004908065561281205     0.13295435273388026
                    66.0      12.702899999999989     -0.1943542925580175    0.028244296053898665     0.21235306425857603
#-----------------------------------------------------------------------------------------------------------------------
# experiment: sac6_and_sla1_raw_trajectories
# path: /Users/andreapicco/Google Drive/RESEARCH/EvoCellBio/Protein_tracking/Data/Sla1/24_degree/Sc/sac6_and_sla1_raw_trajectories
# file: 35.W1data.txt
# protein: Sac6-mCherry
# date: 23/01/19
# notes: the trajectory of the reference protein
# t_unit: s
# delta_t: 0.2715
# coord_unit: pxl
# intensity_normalisation: Absolute
# aligned_to: ../../../Fimbrin/24_degree/Sc/fim1_sc_24deg.txt
# alignment_angle: -2.806309741989804 rad
# alignment_translation: [38.0167809  84.05337181] pxl
# alignment_lag: -5.216100000000011 s
