#                 frames                   t (s)                 x (pxl)                 y (pxl)                       f
                   118.0       1.592899999999993     -0.5002371643434458     0.02521250842848133     0.26350541885291384
                   119.0      1.8643999999999963     0.03333488174479271    -0.01102570087071797      0.6070683688713235
                   120.0      2.1358999999999995     -0.5613750536392956     0.04080160302854097     0.15019616436649524
                   121.0      2.4073999999999955    -0.12856151609553024     0.22327793664977946      0.2584019194852897
                   122.0      2.6788999999999987     -0.2760981867696728   -0.011794143273363034      0.5071307721656834
                   123.0       2.950399999999995     -0.3206052658472487    -0.03187357453974471     0.45979214474894625
                   124.0       3.221899999999998                     nan                     nan                     nan
                   125.0       3.493399999999994     -0.3863636873399088    -0.06961596975777695     0.44678089102115576
                   126.0      3.7648999999999972     0.01718283814970789   -0.004284811263062238      0.5266838043984867
                   127.0       4.036399999999993    -0.24303543532018068     -0.0747457781336891      0.7823070531295641
                   128.0      4.3078999999999965     -0.3349495078920057    -0.33864744434151817     0.25502924945855954
                   129.0                  4.5794    -0.07991988912768022      -0.246210860361316      0.8488071626968455
                   130.0       4.850899999999996    -0.18813944669864213       0.094113405395845      0.3367575426227849
                   131.0       5.122399999999999   -0.012543309581772633    -0.28891220894297476     0.27420296754917467
                   132.0       5.393899999999995    0.005081170616932695    0.004712182897549155                     1.0
                   133.0       5.665399999999998    0.004332987210858619   -0.035590452333806866      0.8627483478700009
                   134.0       5.936899999999994      0.5987921100217193      0.3512071660662599       0.455161397611322
                   135.0      6.2083999999999975      0.0798842687971586     0.37000888143127497      0.7978600453174725
                   136.0      6.4798999999999936     0.46721390923310935     -0.3007357637383734     0.46642179955082963
                   137.0       6.751399999999997      0.3122429877079185   -0.044012893719681756      0.6892694142655488
                   138.0                  7.0229      0.2586338404938857     0.22391731182082708     0.44152388622355515
                   139.0       7.294399999999996      0.4146826580976466   -0.045438296976271886       0.838303164325338
                   140.0       7.565899999999999      0.8267142357317425    -0.06692871722269444      0.4327540542675066
                   141.0       7.837400000000002                     nan                     nan                     nan
                   142.0       8.108899999999998    -0.17713140526686288      0.8023800725557777      0.6504792595254012
                   143.0       8.380399999999995  -0.0019460092764944648      0.7046089084955156      0.3245783328197946
                   144.0       8.651899999999998     0.07395446311399212      0.3949601506086111      0.7176990648404711
                   145.0       8.923399999999994    -0.02212981348445453      0.8047857819978077      0.7405546885341453
                   146.0       9.194900000000004                     nan                     nan                     nan
                   147.0                  9.4664     0.08154359860240845      0.4306577791508346     0.20153705654450366
                   148.0        9.73790000000001                     nan                     nan                     nan
                   149.0      10.009400000000007                     nan                     nan                     nan
                   150.0      10.280900000000003                     nan                     nan                     nan
                   151.0      10.552399999999999     0.42879101787661966      0.7892972208431956      0.3898370506490053
                   152.0      10.823900000000002                     nan                     nan                     nan
                   153.0      11.095399999999998                     nan                     nan                     nan
                   154.0      11.366899999999994      1.1827591202983712      2.6390859541388494                     0.0
#-----------------------------------------------------------------------------------------------------------------------
# experiment: sac6_and_sla1_raw_trajectories
# path: /Users/andreapicco/Google Drive/RESEARCH/EvoCellBio/Protein_tracking/Data/Sla1/24_degree/Sc/sac6_and_sla1_raw_trajectories
# file: 38.W1data.txt
# protein: Sac6-mCherry
# date: 23/01/19
# notes: the trajectory of the reference protein
# t_unit: s
# delta_t: 0.2715
# coord_unit: pxl
# intensity_normalisation: Absolute
# aligned_to: ../../../Fimbrin/24_degree/Sc/fim1_sc_24deg.txt
# alignment_angle: -3.1314726734630853 rad
# alignment_translation: [85.87173082 81.31241463] pxl
# alignment_lag: -30.444100000000006 s
