#                frames                  t (s)                x (pxl)                y (pxl)                      f
                  127.0    -2.1551000000000116    -1.1801269632861064    -0.6459815579480477                    0.0
                  128.0    -1.8836000000000084     -1.080892142778353    -0.5364348159207637    0.10826068443871263
                  129.0    -1.6121000000000052    -0.9139960968561525     -0.695946959359869    0.12610940240016458
                  130.0    -1.3406000000000091    -0.8119903612185908    -0.4825829520905067     0.2001340365897934
                  131.0     -1.069100000000006    -0.5458496681941796    0.07236643841504886     0.2940265631873524
                  132.0    -0.7976000000000099    -0.6228066517705031   -0.33118625475380625      0.231928519394922
                  133.0    -0.5261000000000067    -0.5769071459489936   -0.14071933980703122     0.3277625900427646
                  134.0    -0.2546000000000106   -0.08274770349861171   0.017062064626866658    0.24504884049724224
                  135.0   0.016899999999992588   -0.24018411315060462   -0.16778415606453123     0.3014798653674596
                  136.0    0.28839999999998867    -0.5008990195572807    0.26942684978202536     0.2786790077214799
                  137.0     0.5598999999999918    -0.7236061308758153    -0.3576275988970039     0.2525000516229065
                  138.0      0.831399999999995   -0.19729955080340744    0.03759154413948451     0.2266138431463469
                  139.0      1.102899999999991    -0.6497515515148677    0.37496946696964173    0.14427700616416708
                  140.0     1.3743999999999943                    nan                    nan                    nan
                  141.0     1.6458999999999904    -0.4757003052001494   -0.08965554474010773     0.4271956267687379
                  142.0     1.9173999999999936    -0.3922675887685614    0.15113085556075845     0.4260324777348443
                  143.0     2.1888999999999896    -0.5129230147204851  -0.057680795046582745     0.3723357679305958
                  144.0      2.460399999999993   -0.27789799527451464   -0.07793740234943058      0.541111567948422
                  145.0      2.731899999999989   0.019163255191301687    -0.2778996333423862     0.6014865828798577
                  146.0      3.003399999999992    -0.2175228633615518    0.06003940384092843     0.5759169077696001
                  147.0     3.2748999999999953   -0.24471180643853074   -0.04486477959975588      0.566637853678988
                  148.0     3.5463999999999913   -0.26248640771206055   -0.03456617510365234     0.6363191064087943
                  149.0     3.8178999999999945    -0.1260428398384974   -0.09104762479231354     0.6712695131319525
                  150.0      4.089399999999991  -0.027726146185429457  -0.046419737646164805     0.6427498829662965
                  151.0      4.360899999999994   -0.22301174073604813   0.012990870716418357      0.505217311526075
                  152.0       4.63239999999999   -0.13440560847012506   -0.14009642340975148     0.6530901471867084
                  153.0      4.903899999999993   -0.07064737908969931  -0.051100008362443106     0.6686520357329837
                  154.0      5.175399999999989   -0.18732746606316653    0.09865121560873646     0.7792601901657187
                  155.0      5.446899999999992   -0.05890911885884975   -0.11237749221868754     0.8562099481392358
                  156.0     5.7183999999999955    0.17458122112094543   -0.06358514607591204     0.9157174368586505
                  157.0      5.989899999999992      0.256606001893914    0.05898359819091681                    1.0
                  158.0      6.261399999999995                    nan                    nan                    nan
                  159.0      6.532899999999991    0.26382054910867225   0.054230089120135716     0.8561061795625042
                  160.0      6.804399999999994     0.5913640394901876     0.1568262661721711     0.7553332997022076
                  161.0       7.07589999999999     0.3430037088970721   -0.21589678430590098     0.7391200476969518
                  162.0      7.347399999999993     0.4069600338522008   -0.04495251261704425     0.7018124998529727
                  163.0      7.618899999999989     0.2549456898665028   -0.15766191277336006     0.5915551198030435
                  164.0                 7.8904                    nan                    nan                    nan
                  165.0      8.161899999999996     0.4049066794350722    0.13532093187392746     0.6132239328499686
                  166.0      8.433399999999992     0.7207663846493659    0.11145170478250677     0.7440651300727347
                  167.0      8.704899999999995     0.6135519872806796     0.6071563143655503     0.5431898146829137
                  168.0      8.976399999999991     0.5327273763304703    0.10612762453856206     0.4668658047514507
                  169.0      9.247899999999994     0.7693957301054439     0.1625695806921641     0.5174173072916898
                  170.0       9.51939999999999     0.5243098824194732    0.26583263434181603    0.49113379847096866
                  171.0      9.790899999999993     0.3840396195049749     0.6559340978636783     0.4650857946568854
                  172.0      10.06239999999999  -0.014242891016465364     0.5157416423436381     0.4394327387507152
                  173.0     10.333899999999993    0.02047321328635121   -0.06464482822234174    0.31894696589307237
                  174.0     10.605399999999996                    nan                    nan                    nan
                  175.0     10.876899999999992     0.5978756263934031     0.5904830764276987    0.25857534892510653
                  176.0     11.148399999999995      0.566645635728733     0.5472148312000051     0.4587368306044637
                  177.0     11.419899999999991    0.49805650209958685     0.4389619596214409    0.45718683649862335
                  178.0     11.691399999999994    0.31989094898894166    0.46469643266399174     0.3782521450951311
                  179.0      11.96289999999999     0.5629555418612853    0.32370209847711706    0.39367445575733934
                  180.0     12.234399999999994     0.5488191912348697     0.5119998203565039     0.6033230514443827
                  181.0      12.50589999999999     0.5666000422453408     0.4053334778048594     0.4015151257730039
                  182.0     12.777399999999993     0.6867310138275045     0.6764354825018515     0.4978013869441356
                  183.0     13.048899999999996     0.5170962389329219     0.2886539048728167     0.4358039751467723
                  184.0     13.320399999999992     0.8321941411777232     0.4638751396730605     0.2676311829539333
                  185.0     13.591899999999995     0.7976359210555515     0.6798242930216887    0.30909051939439924
                  186.0     13.863399999999992     0.5418756437765353     0.4735533446572404     0.4079001605145667
                  187.0     14.134899999999995                    nan                    nan                    nan
                  188.0      14.40639999999999     0.7574109310713482      0.548519579775089    0.21778279747013776
                  189.0     14.677899999999994     0.9142014289984388    0.43290049970274325    0.26199160912128405
                  190.0      14.94939999999999     0.8637298836042007     0.4147393850476213     0.2856215698538954
                  191.0     15.220899999999993     0.8120987557478543    0.44817307581429944    0.18221291586825417
                  192.0      15.49239999999999     0.5636278800949128     0.7435073228315794     0.1730263909367427
                  193.0                15.7639                    nan                    nan                    nan
                  194.0     16.035399999999996    0.42788696733800435     0.6118481778209919    0.49765867247840395
                  195.0      16.30689999999999    0.48494045579701606     0.4144115519998053    0.40504508705451714
                  196.0     16.578399999999995      0.235278825658213    0.24467012512222297    0.38902421205801313
                  197.0      16.84989999999999     0.4956884225010185     0.4858894467906332    0.21132222338682338
                  198.0     17.121399999999994     0.5501259134686052    0.46962492767223196     0.2504105654707839
                  199.0      17.39289999999999      1.044549701397493     0.5861307022203448    0.17979748660483594
                  200.0     17.664399999999993     0.6361759010544503     0.4803221211582098    0.23675127508579202
                  201.0      17.93589999999999     0.6668365881953662      0.701604875298802    0.09224137773304081
                  202.0     18.207399999999993     0.5354995602230375    0.45972983556878333    0.28945107468436176
                  203.0     18.478899999999996    0.43502841341793896    0.41230727194481176    0.17264398935548733
                  204.0     18.750399999999992     0.9284773472080801     0.6256883695293283     0.2961312094841865
                  205.0     19.021899999999995     0.9588164675918875     0.5368209519549652    0.17402486943325363
                  206.0      19.29339999999999     1.0183793874166795     0.4561166753957515     0.4148834982086197
                  207.0     19.564899999999994                    nan                    nan                    nan
                  208.0      19.83639999999999     1.0899320322566766    0.37850906931618766    0.13532467933026662
                  209.0     20.107899999999994     0.5107428413574553     0.3335945670313514    0.07005947220217572
                  210.0      20.37939999999999     0.3180046858582557   -0.01932773477850347      0.160558217438819
                  211.0     20.650899999999993     0.8003075439963112    -0.1053221519685863    0.12838891312479075
                  212.0     20.922399999999996     0.5678893545157777    0.24717591703121755     0.0877626004980369
                  213.0                21.1939                    nan                    nan                    nan
                  214.0     21.465399999999995     1.5569043313607267    -0.6282352647892928   0.017476510270605962
#------------------------------------------------------------------------------------------------------------------
# experiment: sac6_and_sla1_raw_trajectories
# path: /Users/andreapicco/Google Drive/RESEARCH/EvoCellBio/Protein_tracking/Data/Sla1/24_degree/Sc/sac6_and_sla1_raw_trajectories
# file: 39.W1data.txt
# protein: Sac6-mCherry
# date: 23/01/19
# notes: the trajectory of the reference protein
# t_unit: s
# delta_t: 0.2715
# coord_unit: pxl
# intensity_normalisation: Absolute
# aligned_to: ../../../Fimbrin/24_degree/Sc/fim1_sc_24deg.txt
# alignment_angle: -1.1011344545244048 rad
# alignment_translation: [-49.42111239  26.86374208] pxl
# alignment_lag: -36.63560000000001 s
