#                frames                  t (s)                x (pxl)                y (pxl)                      f
                  328.0     15.608000000000047     -2.101182575123346     0.7095461881850866    0.08119361251146992
                  329.0     15.867000000000061                    nan                    nan                    nan
                  330.0     16.126000000000047    -1.6034514779762858     0.8738445662835801    0.02224293924130542
                  331.0     16.385000000000062                    nan                    nan                    nan
                  332.0     16.644000000000048    -1.9276888298484316    0.49973692708472583    0.04186891517785641
                  333.0      16.90300000000005    -1.4336422025494215    0.45592600168397723    0.14599170951519988
                  334.0     17.162000000000063                    nan                    nan                    nan
                  335.0      17.42100000000005    -1.8824994392303722    0.48940594719081787     0.1333118323145326
                  336.0      17.68000000000005    -1.5263689299839882     0.6093433209027381    0.05167362952079474
                  337.0      17.93900000000005    -1.9454467208411828     0.5096563777494225    0.07975837267468201
                  338.0      18.19800000000005    -1.4110454568505162     1.0239679792461942    0.10586556326685193
                  339.0      18.45700000000005    -1.5566471729622933    0.47627608039950076    0.11933096655613315
                  340.0      18.71600000000005    -1.7502109790956908     0.7804388851277366    0.06206218082148671
                  341.0      18.97500000000005    -1.4538848179285004     0.6068713426409289     0.2125113450136109
                  342.0      19.23400000000005    -1.4288617380777957     0.3200914930440888    0.07082785270698971
                  343.0     19.493000000000052    -1.6837179792090566     0.5805120836076014     0.2770824636920538
                  344.0     19.752000000000052    -1.3008368826095769     0.7047198877737912    0.13480732912075716
                  345.0     20.011000000000053    -1.5500263112987192     1.0090230074547861    0.22561739197221065
                  346.0     20.270000000000053    -1.3955393787043668      0.726965515083819    0.10687619440709173
                  347.0     20.529000000000053    -1.6158754448893156     0.5083447450043508    0.01815639274930698
                  348.0     20.788000000000054     -1.823139744390037      0.789222120672946                    0.0
                  349.0     21.047000000000054    -1.9192681908320672     0.7750245129645634    0.17813646111755138
                  350.0      21.30600000000007                    nan                    nan                    nan
                  351.0     21.565000000000055    -1.5714546977477823     0.5034219563243454    0.21263529328752973
                  352.0     21.824000000000055    -1.4657364493392961      0.252872160390595    0.15022405914049836
                  353.0     22.083000000000055    -1.6772776155003974     0.2765785584342524     0.1002872665159514
                  354.0     22.342000000000056    -1.5599414806287264     0.5526973167346938    0.18110778535655736
                  355.0     22.601000000000056    -1.5232164196096605     0.4129077359815341     0.2855153172904096
                  356.0     22.860000000000056    -1.4379545125116628      0.575823164235004    0.28420402572754044
                  357.0     23.119000000000057    -1.4972440123457567     0.6929439228537149     0.2618280840562869
                  358.0     23.378000000000057    -1.4712876892370907    0.31856095940227647    0.32501891225867163
                  359.0     23.637000000000057    -1.2600373513318388      0.907783109122505      0.293736490965045
                  360.0     23.896000000000058      -0.97246472495371     0.7592919232629214      0.403198115236927
                  361.0     24.155000000000058    -1.4055793325303618     0.6150375295387818     0.2643744873864679
                  362.0      24.41400000000006     -1.420901785928212     0.4340540431681461     0.3492025630130234
                  363.0     24.673000000000044    -1.3327912536035527      0.557983987465164     0.3754624254085844
                  364.0     24.932000000000045    -1.2386272270384282     0.5888341495886351    0.35786114608755876
                  365.0     25.191000000000045    -1.3771181830209507     0.5114656107692355     0.2999301581136634
                  366.0     25.450000000000045    -1.2133959660673952     0.5147627593572253     0.3667607570398405
                  367.0     25.709000000000046    -1.3294720496241652     0.3273759758048129    0.22719937157912912
                  368.0     25.968000000000046    -1.3477913589919623     0.5343623522267649     0.4163116552901717
                  369.0     26.227000000000046    -1.5559852007653596     0.8385645291841826    0.33345738567801114
                  370.0     26.486000000000047    -1.5175528391053419     0.6667574629813231    0.44350409575675415
                  371.0     26.745000000000047    -1.1843424599881942     0.6949496716497379     0.5719872529971598
                  372.0     27.004000000000048    -1.3143815805492025      0.687598439390996     0.5660783234450503
                  373.0     27.263000000000048    -1.2351979050071833     0.6216861004501197     0.5522395142726281
                  374.0     27.522000000000048    -1.4010581788267018     0.6718599870198574    0.34596835603688975
                  375.0      27.78100000000005    -1.4469278741600675      0.612800020858117     0.3826801488253482
                  376.0      28.04000000000005     -1.302988616839059     0.8429353418800787    0.18102223919269397
                  377.0     28.299000000000063                    nan                    nan                    nan
                  378.0      28.55800000000005    -1.2732872717286838     0.6444491082424832    0.45650430275349374
                  379.0      28.81700000000005     -1.499980940868891     0.5543124825803858     0.2343858737682055
                  380.0      29.07600000000005    -1.5780613832157968     0.5795134604961589     0.4019923514236412
                  381.0      29.33500000000005    -1.3082821143585406     0.8523053124782791     0.3835315517043825
                  382.0      29.59400000000005    -1.3717542523066264      0.638454217345938    0.45330256585415507
                  383.0      29.85300000000005     -1.468991015053021     0.7048583442402929    0.44053526921596314
                  384.0      30.11200000000005    -1.4752516328900676    0.44115780451143394     0.3430142034731119
                  385.0     30.371000000000052    -1.5108496254560606     0.6699673800786883     0.2666704964705963
                  386.0     30.630000000000052    -1.2008826657728058     0.9397102574669844    0.18336414348152286
                  387.0     30.889000000000053    -1.5299828889903075     0.7430095126839831     0.3393194833885897
                  388.0     31.148000000000053    -1.2718549389475093     0.9197416904324314     0.2370059591957287
                  389.0     31.407000000000053    -1.4707205419385616     0.8579023844207541    0.37669566390223513
                  390.0     31.666000000000054    -1.6933203306192226     0.7302509417954326    0.31795292400846853
                  391.0     31.925000000000054    -1.3880163243613275     1.0731467053561374     0.3241584552236081
                  392.0     32.184000000000054    -1.2966717162135986     0.5147889812290742    0.19106798141337877
                  393.0     32.443000000000055    -1.4360102723643955      0.945408020142608    0.14829052850982016
                  394.0     32.702000000000055    -1.2306935760473898     0.8610653891754083    0.40588251639348616
                  395.0     32.961000000000055    -1.4621086144866844     0.9454540578231416     0.5739813528095515
                  396.0     33.220000000000056    -1.4841909271302782      1.070869385169189    0.46240636363551213
                  397.0     33.479000000000056    -1.3197319852541618      1.113409368267284     0.5609667840480758
                  398.0     33.738000000000056     -1.338516395760081     1.0674248198738923    0.47225603654632026
                  399.0      33.99700000000006    -1.1704818582363785     0.8640349827920062     0.5366385790095316
                  400.0      34.25600000000006    -1.4180514759184923      0.876877281563381    0.47067155924118687
                  401.0      34.51500000000006    -1.4775154248891482     0.9421221589317668      0.511123655106591
                  402.0      34.77400000000006    -1.1737797633634237     0.9153776803328668    0.29830665427392067
                  403.0      35.03300000000007                    nan                    nan                    nan
                  404.0      35.29200000000006    -1.1034319791112104      1.166883551641675    0.27511708740913454
                  405.0      35.55100000000006                    nan                    nan                    nan
                  406.0     35.810000000000045    -1.5464573761541338     0.9322951284150491     0.2884398096878845
                  407.0     36.069000000000045     -1.316102417302261       1.10383697387077     0.5276284449112366
                  408.0     36.328000000000046    -1.0297339379322814     1.0216026754039973     0.3472359378809965
                  409.0     36.587000000000046    -1.6100086978575412     0.7866118737570389     0.3674064120284151
                  410.0     36.846000000000046    -1.5019028310268894     0.9021539885974477    0.22450092087011067
                  411.0      37.10500000000005    -1.5790574979034773     0.7174813818276249    0.22772950802526049
                  412.0      37.36400000000005    -1.0851776685494379      0.988920681764526     0.4318994776376396
                  413.0      37.62300000000005    -1.6201673649519002     1.0061881978629543    0.23278360036329024
                  414.0      37.88200000000005     -1.332678664263252     1.1529248010959492     0.3114838856316476
                  415.0      38.14100000000005    -1.0439194467842619      0.917540087085186     0.3558948331678088
                  416.0      38.40000000000005     -1.327095086288928     0.9514935028798845     0.5089372325316451
                  417.0      38.65900000000005    -1.7038682585970584     0.6680770874081219     0.4602096380554296
                  418.0      38.91800000000005    -1.3630274427639222     0.6459388490139162    0.47492014390488274
                  419.0      39.17700000000005    -1.1298975102499362     0.9768624645130473     0.4752595186498442
                  420.0      39.43600000000005     -1.464360322162662      0.617388392752062    0.34935835693918327
                  421.0      39.69500000000005    -1.3635908425156487     0.6264060345541509    0.39195379008532455
                  422.0      39.95400000000005    -1.3944651287563055     1.0402248169856847    0.42143818087643614
                  423.0      40.21300000000005    -1.5310516728027856     0.6447843080460558     0.3715813145947688
                  424.0      40.47200000000005    -1.2742483167883947     0.5735341376270213    0.40124834956785144
                  425.0      40.73100000000005     -1.411272112708975     0.8594550618289958     0.4620036097983452
                  426.0      40.99000000000005    -1.4577358218591812     0.7790990875768813     0.5784862637525605
                  427.0      41.24900000000005    -1.4685153240419346     1.0602811317807976     0.4915826009093496
                  428.0      41.50800000000005     -1.361838145393662     0.7975806035730244      0.351300317301337
                  429.0      41.76700000000005    -1.6490731972578914     0.9539572248325925    0.29327878776714833
                  430.0      42.02600000000007                    nan                    nan                    nan
                  431.0      42.28500000000005    -1.2178350827641502     0.7110236182898149    0.36983386248110733
                  432.0      42.54400000000007                    nan                    nan                    nan
                  433.0     42.803000000000054    -1.1611208703365108     0.8882576803820399     0.5524321492474592
                  434.0     43.062000000000054    -1.3510825072436852     0.6831784061597403     0.5534371605667153
                  435.0     43.321000000000055    -1.5227890920639808     0.9147882653828674     0.4719241548960037
                  436.0     43.580000000000055      -1.03002055237841     0.7825433496161196      0.427936567207283
                  437.0     43.839000000000055    -1.1160640342042711      0.855337762281394    0.45806942289746105
                  438.0     44.098000000000056    -1.0556125242607557     0.7996938711292785     0.5848313538554626
                  439.0     44.357000000000056    -0.8942521981319018     1.0620341135389992     0.6279850225526539
                  440.0      44.61600000000006    -1.2065325137465557     0.7965424375496895     0.5495217064024435
                  441.0      44.87500000000006    -1.2094195379440933      0.730124382027995     0.4199710953874071
                  442.0      45.13400000000006     -1.062552528268153     0.9519621870271635     0.6168096963142404
                  443.0      45.39300000000006    -0.9614347116885753     0.7479532505288233     0.6144325120381249
                  444.0      45.65200000000006    -0.8361480380477779     0.8022116104471309     0.5601341139056538
                  445.0      45.91100000000006    -0.6827793429640749     1.2129167310937135     0.8199936995562528
                  446.0      46.17000000000006    -0.6201121550767397     1.0822502725885101     0.8179215466746427
                  447.0      46.42900000000006    -0.6606102307463821     1.1567250905812756     0.8749134001197023
                  448.0      46.68800000000006    -0.5923824726863209      1.276652007456093     0.8436437795294275
                  449.0      46.94700000000006                    nan                    nan                    nan
                  450.0     47.206000000000046   -0.41496702212359793     1.0820905020146796     0.7862579141909534
                  451.0     47.465000000000046   -0.42458895293994914     1.0567898068391486     0.7787317250446386
                  452.0     47.724000000000046   -0.47992791528516676      1.088702036227815     0.8986440308603104
                  453.0      47.98300000000005   -0.45938598282774734     1.2434453691243021     0.9645723363063228
                  454.0      48.24200000000005    -0.3723811353523452     1.1670049783888885                    1.0
                  455.0      48.50100000000005    -0.2731763164753751     1.2041594616390654     0.8294284423510958
                  456.0      48.76000000000005    -0.3290825629498002     1.1705763131395344     0.7192171964024404
                  457.0      49.01900000000005   -0.11411696765138757     1.2867552464751384     0.7194132657123171
                  458.0      49.27800000000005   -0.17962083909487347     1.2952564726169555     0.7135314986282953
                  459.0      49.53700000000005      -0.35470532155637     1.3164376095597703     0.7750994474154912
                  460.0      49.79600000000005    -0.1210660483042254     1.4010756819102852     0.6707431182950463
                  461.0      50.05500000000005    0.22952247445729768      1.498270330394078     0.7167894337374714
                  462.0      50.31400000000005    0.05034238462660667      1.597142298799028     0.6100652867092171
                  463.0      50.57300000000005  -0.011476594020390252     1.2273386037065563     0.6418066600498478
                  464.0      50.83200000000005      0.056561434596059     1.3922180039692336     0.7196371219148354
                  465.0      51.09100000000005    0.16711970707876844      1.651732309660943     0.6148827221413765
                  466.0      51.35000000000005     0.1742376283974636     1.5945839217825295      0.490074927824327
                  467.0      51.60900000000005    0.39098545253920847     1.3353756135923192     0.5403701401427248
                  468.0      51.86800000000005     0.6019897148666082       1.34671459668904     0.4585027735377616
                  469.0      52.12700000000005     0.4212751901999958     1.4618006245096211     0.6248713295153936
                  470.0      52.38600000000005    0.14787187942675928     1.5385467818286287     0.4709566090499724
                  471.0      52.64500000000005     0.5874003725572265     1.9356580610079703     0.4086683865400292
                  472.0      52.90400000000005    0.35064959534191686     1.8082779364478512    0.39499161553930456
                  473.0      53.16300000000005      0.359534116355519      1.710778302646716    0.45056196648775865
                  474.0     53.422000000000054     0.6404933696220354     2.0178512047529154    0.33820894431975035
                  475.0     53.681000000000054     0.4451735643458896        2.4287266098478     0.2886449331537905
                  476.0      53.94000000000007                    nan                    nan                    nan
                  477.0     54.199000000000055       0.39374819235546      2.496305536301591    0.28937269997118287
                  478.0     54.458000000000055    0.37052210737262214       2.73493934292037     0.3096624392083671
                  479.0     54.717000000000056     0.5928066635321194      2.598330487435163    0.32093080470528884
                  480.0     54.976000000000056     0.4915709370887349     2.2930229100177684     0.3739656797532524
                  481.0     55.235000000000056     0.9054789550812821     2.5455664697584126     0.3452277885161456
                  482.0      55.49400000000007                    nan                    nan                    nan
                  483.0      55.75300000000006      0.708007441997772      2.738114335668442     0.2733115638119745
                  484.0      56.01200000000006       0.76621426404758      2.805421499498621     0.2810032254650324
#------------------------------------------------------------------------------------------------------------------
# experiment: sac6_and_sla1_raw_trajectories
# path: /Users/andreapicco/Google Drive/RESEARCH/EvoCellBio/Protein_tracking/Data/Sla1/24_degree/Sc/sac6_and_sla1_raw_trajectories
# file: 39.W2data.txt
# protein: Sla1-GFP
# date: 23/06/01
# notes: the trajectory of the target protein
# t_unit: s
# delta_t: 0.259
# coord_unit: pxl
# intensity_normalisation: Absolute
# aligned_to: ../../../Fimbrin/24_degree/Sc/fim1_sc_24deg.txt
# alignment_angle: 0.6744729467136212 rad
# alignment_translation: [-23.45892039 -74.14364663] pxl
# alignment_lag: -69.34399999999995 s
