#               frames                 t (s)               x (pxl)               y (pxl)                     f
                  91.0     29.98799999999993  -0.02239826758967922    0.5212078403918667                   0.0
                  92.0     30.23879999999993                   nan                   nan                   nan
                  93.0     30.48959999999993   0.21624691636372262    0.1238950475637921   0.06907705044823874
                  94.0     30.74039999999993   0.16246493320659283    0.2533620222588411    0.2134639630571955
                  95.0    30.991199999999928   0.18115470053361094   -0.2242687261004619    0.5335335259581927
                  96.0     31.24199999999993    0.5235647295672052    0.3344732611183474    0.3729692531775785
                  97.0     31.49279999999993                   nan                   nan                   nan
                  98.0     31.74359999999993   -0.9404941237769933     0.254438833242034    0.6417187707325244
                  99.0     31.99439999999993                   nan                   nan                   nan
                 100.0    32.245199999999926    -0.937557188777447  -0.20061466651026194    0.4403077356185967
                 101.0     32.49599999999993   -0.2010353548283419   -0.0844688895217871    0.5146166346550183
                 102.0    32.746799999999936                   nan                   nan                   nan
                 103.0    32.997599999999935    0.8480890921651394    0.5008387458842662    0.6686080507908063
                 104.0     33.24839999999993                   nan                   nan                   nan
                 105.0     33.49919999999993  -0.33294844669634927    0.5338949346544268                   1.0
                 106.0     33.74999999999993  -0.43129287059751675     2.538190997811654    0.3370697914475168
                 107.0    34.000799999999934                   nan                   nan                   nan
                 108.0     34.25159999999993                   nan                   nan                   nan
                 109.0     34.50239999999993    2.0061358420556346     3.580797147052067   0.32526760880302674
                 110.0     34.75319999999993    1.6942535595302175     4.232332225020059   0.34968525663049765
#-------------------------------------------------------------------------------------------------------------
# experiment: 230317_MKUM0019_DW
# path: /Users/andreapicco/Google Drive/RESEARCH/EvoCellBio/Protein_tracking/Data/Rvs167/24_degree/Um/230317_MKUM0019_DW
# file: 01.W1data.txt
# protein: Fim1-mCherry
# date: 17/03/23
# notes: the trajectory of the reference protein
# t_unit: s
# delta_t: 0.2508
# coord_unit: pxl
# intensity_normalisation: Absolute
# aligned_to: ../../../Fimbrin/24_degree/Um/fim1_um_24deg.txt
# alignment_angle: -2.071651756081171 rad
# alignment_translation: [-18.31186455 142.73194433] pxl
# alignment_lag: 7.165199999999928 s
