#               frames                 t (s)               x (pxl)               y (pxl)                     f
                   7.0      26.9639999999999    -1.673426560428382   -0.5253241444294545   0.09810639585290072
                   8.0    27.214799999999897   -1.2125501195752122   0.12191409727719105   0.23703429424656214
                   9.0      27.4655999999999                   nan                   nan                   nan
                  10.0    27.716399999999897   -0.5708833124638488  -0.09775811297139114                   0.0
                  11.0      27.9671999999999                   nan                   nan                   nan
                  12.0    28.217999999999897    -1.239570432996345   -0.5782867547378743    0.2897181983479034
                  13.0      28.4687999999999    -1.440319477390048   -0.8371473484944545    0.2301442875033114
                  14.0      28.7195999999999   -1.2172366912330972  -0.08602093368703834    0.3498584368903979
                  15.0      28.9703999999999    -0.691029782419065   -0.2017965841553746   0.28474316944825756
                  16.0    29.221199999999897   -0.9786293196153508   0.13724389229025036   0.43210088384750606
                  17.0      29.4719999999999   -0.7890987022420859  -0.34633854136414755    0.2853798647737397
                  18.0      29.7227999999999                   nan                   nan                   nan
                  19.0    29.973599999999898   -1.3775195341547857  -0.07685927412419602   0.18423862979553488
                  20.0      30.2243999999999                   nan                   nan                   nan
                  21.0    30.475199999999898   -0.7347529199807923   0.06294281338635699    0.6420447703682296
                  22.0      30.7259999999999   -0.6872101543076923   -0.1967087435436028   0.36162149591792486
                  23.0    30.976799999999898                   nan                   nan                   nan
                  24.0      31.2275999999999   0.23393326875412868   0.07762208306172624                   1.0
                  25.0    31.478399999999898   0.09729318043738999  0.024979492037005002    0.8437684385762106
                  26.0      31.7291999999999    0.2148447978517538    0.4940323450421573    0.6410046841509524
                  27.0    31.979999999999897                   nan                   nan                   nan
                  28.0      32.2307999999999   0.01144531049907016   0.41012696398905035    0.7105523595356789
                  29.0      32.4815999999999  -0.34709090109876684  0.017125154811196808    0.9866245062977143
                  30.0      32.7323999999999                   nan                   nan                   nan
                  31.0      32.9831999999999    0.2834968440429577   0.12949951076962662    0.8942367031524695
                  32.0    33.233999999999895                   nan                   nan                   nan
                  33.0      33.4847999999999    -0.606315945235238   0.07143769697638902     0.469273053488428
                  34.0      33.7355999999999  -0.42292716636639227    -0.507519140874237     0.703258209305686
#-------------------------------------------------------------------------------------------------------------
# experiment: 230317_MKUM0019_DW
# path: /Users/andreapicco/Google Drive/RESEARCH/EvoCellBio/Protein_tracking/Data/Rvs167/24_degree/Um/230317_MKUM0019_DW
# file: 03.W1data.txt
# protein: Fim1-mCherry
# date: 17/03/23
# notes: the trajectory of the reference protein
# t_unit: s
# delta_t: 0.2508
# coord_unit: pxl
# intensity_normalisation: Absolute
# aligned_to: ../../../Fimbrin/24_degree/Um/fim1_um_24deg.txt
# alignment_angle: -2.896505783273469 rad
# alignment_translation: [96.588398   52.50564926] pxl
# alignment_lag: 25.208399999999898 s
