#                frames                  t (s)                x (pxl)                y (pxl)                      f
                  112.0     27.201599999999875   -0.21485093132236344     1.1193976151393912    0.19820592754158653
                  113.0     27.452399999999876                    nan                    nan                    nan
                  114.0     27.703199999999875    0.09288450689963312     1.0098948409128496     0.4388433202824087
                  115.0     27.953999999999876                    nan                    nan                    nan
                  116.0     28.204799999999874   -0.32109198535050965     0.6197528043027489    0.44482343258058216
                  117.0     28.455599999999876                    nan                    nan                    nan
                  118.0     28.706399999999874    -0.8862628140864466     0.6505392165965276   0.027279392009639466
                  119.0     28.957199999999876                    nan                    nan                    nan
                  120.0     29.207999999999874    -1.0541974992936112     0.3848386147861902    0.32921749115970755
                  121.0     29.458799999999872    -0.8942750055048627      0.600906956385316    0.11060397001918677
                  122.0     29.709599999999877                    nan                    nan                    nan
                  123.0     29.960399999999876                    nan                    nan                    nan
                  124.0     30.211199999999874   -0.41027803077632186     0.1352453946490897     0.3188444678436664
                  125.0     30.461999999999875                    nan                    nan                    nan
                  126.0     30.712799999999874    -0.6491661054418039    0.35082654612718045                    0.0
                  127.0     30.963599999999875                    nan                    nan                    nan
                  128.0     31.214399999999873    -1.0865327716504716    0.28894934236426195     0.5279626949545687
                  129.0      31.46519999999987    -0.7175354028328691     0.3384675934510284     0.7262868678284691
                  130.0     31.715999999999877    -0.6469436046947372     0.1179977644389254                    1.0
                  131.0     31.966799999999875                    nan                    nan                    nan
                  132.0      32.21759999999988    0.10288099062815448  -0.021364687210919442     0.7462838981260247
                  133.0     32.468399999999875    -0.5196677906751894     0.4772578558040408     0.6190205176974494
                  134.0      32.71919999999987                    nan                    nan                    nan
                  135.0      32.96999999999987    0.10932716955322874     0.5725226804626544     0.5611113200327364
#------------------------------------------------------------------------------------------------------------------
# experiment: 230317_MKUM0019_DW
# path: /Users/andreapicco/Google Drive/RESEARCH/EvoCellBio/Protein_tracking/Data/Rvs167/24_degree/Um/230317_MKUM0019_DW
# file: 05.W2data.txt
# protein: Rvs167-GFP
# date: 17/03/23
# notes: the trajectory of the target protein
# t_unit: s
# delta_t: 0.2508
# coord_unit: pxl
# intensity_normalisation: Absolute
# aligned_to: ../../../Fimbrin/24_degree/Um/fim1_um_24deg.txt
# alignment_angle: -2.30023492178608 rad
# alignment_translation: [ 8.08750736 86.41370788] pxl
# alignment_lag: -0.8880000000001296 s
