#                frames                  t (s)                x (pxl)                y (pxl)                      f
                   56.0      28.97999999999992   -0.11873722866600112  -0.014207472616590167                    0.0
                   57.0     29.230799999999924                    nan                    nan                    nan
                   58.0     29.481599999999922                    nan                    nan                    nan
                   59.0      29.73239999999992    -0.8687389156015204     0.5650247952120111    0.10758743700901378
                   60.0      29.98319999999992   -0.49346696271109103   0.036335023092490815     0.2164482389727661
                   61.0      30.23399999999992                    nan                    nan                    nan
                   62.0     30.484799999999918   -0.31513600041862055     0.5156467335449406    0.25555031378460075
                   63.0      30.73559999999992   -0.39246080006000206   -0.11069601236772542     0.3410602729856883
                   64.0     30.986399999999918    -0.7891218749332456   -0.18085051484203518    0.36862702603200487
                   65.0     31.237199999999923                    nan                    nan                    nan
                   66.0      31.48799999999992                    nan                    nan                    nan
                   67.0      31.73879999999992   -0.11073470080191505    0.38399891442131207     0.8196115432108702
                   68.0      31.98959999999992                    nan                    nan                    nan
                   69.0      32.24039999999992   -0.06921146216392238   0.055215815063988316     0.9683617435555876
                   70.0      32.49119999999992                    nan                    nan                    nan
                   71.0      32.74199999999992   -0.13503773120675966  -0.015519986966523902     0.9891726573609995
                   72.0      32.99279999999992    0.10590611187325116    0.28768015230592425       0.94631305644541
                   73.0     33.243599999999915     0.2571591392863919     0.6611184186249659                    1.0
                   74.0     33.494399999999914     0.3573165889247232     1.9387355157561643     0.7109454751791314
                   75.0     33.745199999999926                    nan                    nan                    nan
                   76.0     33.995999999999924                    nan                    nan                    nan
                   77.0      34.24679999999992      1.863951223563772      2.985665843909416     0.3835489953066629
                   78.0      34.49759999999992                    nan                    nan                    nan
                   79.0      34.74839999999992       1.45696283975691      4.168337706804309     0.1328980875042251
#------------------------------------------------------------------------------------------------------------------
# experiment: 230317_MKUM0019_DW
# path: /Users/andreapicco/Google Drive/RESEARCH/EvoCellBio/Protein_tracking/Data/Rvs167/24_degree/Um/230317_MKUM0019_DW
# file: 07.W1data.txt
# protein: Fim1-mCherry
# date: 17/03/23
# notes: the trajectory of the reference protein
# t_unit: s
# delta_t: 0.2508
# coord_unit: pxl
# intensity_normalisation: Absolute
# aligned_to: ../../../Fimbrin/24_degree/Um/fim1_um_24deg.txt
# alignment_angle: 0.8655284944620638 rad
# alignment_translation: [  5.95196545 -96.75188376] pxl
# alignment_lag: 14.935199999999917 s
