#                frames                  t (s)                x (pxl)                y (pxl)                      f
                   48.0      31.23839999999992     -0.638288161653982    -0.4639043935764988    0.18202096269338847
                   49.0     31.489199999999922   -0.20164441558745594   -0.39680034841533995     0.1534253694009978
                   50.0     31.739999999999924    -0.8564711674182206   0.027258516644423025    0.12317623031969363
                   51.0     31.990799999999922      -1.17873601060613   -0.23468073573114623                    0.0
                   52.0      32.24159999999992    -1.1439007165723432   -0.06721799796666517     0.3188627872187214
                   53.0      32.49239999999992    -0.7537376856733857   -0.14685904874913547     0.5976291095179097
                   54.0      32.74319999999992                    nan                    nan                    nan
                   55.0      32.99399999999992    -0.4296288624945177    -0.3182245367524388     0.4073569856652289
                   56.0      33.24479999999993    -0.7042331977511509    -0.2026490384655517     0.7138897038084084
                   57.0     33.495599999999925   -0.35700064121173725   -0.30754751477529396     0.4365207327648562
                   58.0      33.74639999999992   -0.07318723674654137    -0.7950565898394046     0.5887374620254237
                   59.0      33.99719999999992   -0.09943215341172618    -0.7151694952981984      0.517575591530548
                   60.0      34.24799999999992   -0.14152304698436424   -0.37457229907919043     0.4910303626890243
                   61.0     34.498799999999925   -0.13907672552948114   -0.42656952809514337     0.5428859142305961
                   62.0      34.74959999999992   -0.17971462809568095    -0.3023372961220332     0.8016823979808313
                   63.0      35.00039999999992    0.08287289782115437  -0.060590546125553146      0.902393115559898
                   64.0     35.251199999999926   -0.14521996006313387     0.3233010873482556     0.9541007693109658
                   65.0     35.501999999999924   -0.28763276360474777     0.4525633729439278                    1.0
                   66.0      35.75279999999992    -1.0503651449004963     0.8706613760053017     0.3048533104455441
                   67.0      36.00359999999993                    nan                    nan                    nan
                   68.0     36.254399999999926                    nan                    nan                    nan
                   69.0     36.505199999999924    0.35410405211689877    -0.4922610071249096    0.34212476592952146
                   70.0      36.75599999999993                    nan                    nan                    nan
                   71.0      37.00679999999993     0.3658539086997834   -0.36055800435244123    0.23242299414631862
                   72.0     37.257599999999925     0.5400344164653177    -0.9799381223571686    0.15004392483559498
                   73.0     37.508399999999924                    nan                    nan                    nan
                   74.0      37.75919999999992   0.008595204066054407    -0.9503761970232318    0.03031541022240433
#------------------------------------------------------------------------------------------------------------------
# experiment: 230317_MKUM0019_DW
# path: /Users/andreapicco/Google Drive/RESEARCH/EvoCellBio/Protein_tracking/Data/Rvs167/24_degree/Um/230317_MKUM0019_DW
# file: 08.W2data.txt
# protein: Rvs167-GFP
# date: 17/03/23
# notes: the trajectory of the target protein
# t_unit: s
# delta_t: 0.2508
# coord_unit: pxl
# intensity_normalisation: Absolute
# aligned_to: ../../../Fimbrin/24_degree/Um/fim1_um_24deg.txt
# alignment_angle: -1.6638443516535393 rad
# alignment_translation: [-25.07410116  77.85896382] pxl
# alignment_lag: 19.19999999999992 s
