#                frames                  t (s)                x (pxl)                y (pxl)                      f
                  159.0      29.23199999999992    -1.0354977900776774   -0.44600146775008653   0.032648046855600465
                  160.0     29.482799999999926                    nan                    nan                    nan
                  161.0     29.733599999999925                    nan                    nan                    nan
                  162.0     29.984399999999923    -1.2440885187723367    0.36981361071232044                    0.0
                  163.0     30.235199999999928                    nan                    nan                    nan
                  164.0     30.485999999999926    -0.7407297915831137    0.28872837532115625    0.23815786468730735
                  165.0     30.736799999999924    -0.9553189009090772     0.7861605165541974     0.2901979733945045
                  166.0     30.987599999999922    -0.8556729916980927    0.25572645925064563     0.5421606516051786
                  167.0     31.238399999999928                    nan                    nan                    nan
                  168.0     31.489199999999926   -0.32517280891553924   -0.10622250671510614     0.6531635759114307
                  169.0     31.739999999999924   -0.34004525018914933    0.07106371400033851     0.6549188121668832
                  170.0     31.990799999999922   -0.20550172194923988    -0.2416253742818668     0.8051553630587658
                  171.0      32.24159999999992   -0.15936983271474503   -0.20169427385053496     0.9123509254503095
                  172.0     32.492399999999925                    nan                    nan                    nan
                  173.0      32.74319999999992     0.1199973173681883    0.40358556065292817     0.8416114968337236
                  174.0      32.99399999999992     0.4177098424184891    0.38575321887805814     0.9401349161151497
                  175.0      33.24479999999992  -0.026622542479586286   -0.21556824747815284                    1.0
                  176.0     33.495599999999925  -0.016805758945679372    -0.6361802171759336      0.799825853883288
                  177.0      33.74639999999992                    nan                    nan                    nan
                  178.0      33.99719999999992    0.04304283387052976  -0.049424444876315476     0.5367811171089135
#------------------------------------------------------------------------------------------------------------------
# experiment: 230317_MKUM0019_DW
# path: /Users/andreapicco/Google Drive/RESEARCH/EvoCellBio/Protein_tracking/Data/Rvs167/24_degree/Um/230317_MKUM0019_DW
# file: 09.W1data.txt
# protein: Fim1-mCherry
# date: 17/03/23
# notes: the trajectory of the reference protein
# t_unit: s
# delta_t: 0.2508
# coord_unit: pxl
# intensity_normalisation: Absolute
# aligned_to: ../../../Fimbrin/24_degree/Um/fim1_um_24deg.txt
# alignment_angle: 0.0267909843191915 rad
# alignment_translation: [-60.25959058 -59.63090632] pxl
# alignment_lag: -10.64520000000008 s
