#                frames                  t (s)                x (pxl)                y (pxl)                      f
                  177.0      28.97999999999992   -0.03546008658612898     -0.403962809537461                    0.0
                  178.0     29.230799999999924                    nan                    nan                    nan
                  179.0     29.481599999999922                    nan                    nan                    nan
                  180.0      29.73239999999992    -0.3670402724655748     0.5431298606886799     0.6145182576220711
                  181.0      29.98319999999992                    nan                    nan                    nan
                  182.0     30.233999999999916    0.01869695541863159    0.16256017764862918    0.37006109368871715
                  183.0      30.48479999999992   -0.36967888114650016   -0.15311044705586596      0.492972679151758
                  184.0      30.73559999999992   -0.28627634058937623   -0.17707327878787282     0.5469664373144467
                  185.0     30.986399999999918                    nan                    nan                    nan
                  186.0     31.237199999999916    -0.7740620293182676    0.19765331600797253     0.6954798509836312
                  187.0      31.48799999999992                    nan                    nan                    nan
                  188.0      31.73879999999992   -0.13378170179838555    0.14381619882087193     0.9081096423092389
                  189.0     31.989599999999918   -0.08903108073681842    0.08098830715954364     0.8147878698579046
                  190.0     32.240399999999916    -0.4843853870861299    0.28211448515750703      0.892006108188226
                  191.0      32.49119999999992    0.10333138067232106    0.02525219476717666                    1.0
                  192.0      32.74199999999992    0.08172929909145488  -0.054382261565336876      0.806032438002527
                  193.0      32.99279999999992   -0.01603450655976424    0.30328706391364335     0.9553399539217624
                  194.0      33.24359999999992   -0.17856402882095246   -0.21557360936441228     0.7900486213482926
                  195.0      33.49439999999992   -0.08975290273476055   0.027830364112418238     0.8029918032496564
                  196.0      33.74519999999992    -0.4241309270983198    0.17235788608218172     0.6845669073058588
                  197.0      33.99599999999992    0.10362736794411909  -0.028799310415706714     0.8395441196645739
                  198.0      34.24679999999992    0.23697071573965012     0.3420264175248917     0.8579813179358253
                  199.0      34.49759999999992    -0.2703773599769992     0.2937531394550774      0.801445865863072
                  200.0      34.74839999999992    0.20873519690020537     0.2906326632753178     0.9072690226214064
                  201.0     34.999199999999924                    nan                    nan                    nan
                  202.0      35.24999999999992    -0.0738539167192176  -0.060804849362114055     0.7666612120838607
                  203.0      35.50079999999992                    nan                    nan                    nan
                  204.0      35.75159999999992    -0.4783640027549243    0.03168183670339886    0.48587369311383727
                  205.0     36.002399999999916    -0.6959503607375499   -0.07262269500955654    0.34484085014985943
                  206.0      36.25319999999992                    nan                    nan                    nan
                  207.0      36.50399999999992    0.00508372314607719     0.5734580652352008     0.3028483548057354
#------------------------------------------------------------------------------------------------------------------
# experiment: 230317_MKUM0019_DW
# path: /Users/andreapicco/Google Drive/RESEARCH/EvoCellBio/Protein_tracking/Data/Rvs167/24_degree/Um/230317_MKUM0019_DW
# file: 14.W1data.txt
# protein: Fim1-mCherry
# date: 17/03/23
# notes: the trajectory of the reference protein
# t_unit: s
# delta_t: 0.2508
# coord_unit: pxl
# intensity_normalisation: Absolute
# aligned_to: ../../../Fimbrin/24_degree/Um/fim1_um_24deg.txt
# alignment_angle: 0.4183673504348534 rad
# alignment_translation: [  15.17645941 -132.02506466] pxl
# alignment_lag: -15.411600000000085 s
