#                frames                  t (s)                x (pxl)                y (pxl)                      f
                  171.0      30.99599999999994   -0.07632977212379338    0.16525977238853784    0.04637710544420891
                  172.0     31.246799999999944   -0.45132221705742176     0.3185720634147273                    0.0
                  173.0      31.49759999999994   -0.31570266571722677    0.05007482885115877    0.24770939284269533
                  174.0      31.74839999999994   -0.47072521018431396     0.5965191340643727     0.2846612736061229
                  175.0     31.999199999999938    -0.1764377605442548   -0.08692046464523884    0.24028072917538132
                  176.0      32.24999999999994                    nan                    nan                    nan
                  177.0      32.50079999999994   -0.06832904035044302  -0.020194184582166486     0.9684521706264883
                  178.0      32.75159999999994    0.05725922969143432    0.23179451004497054                    1.0
                  179.0     33.002399999999945    0.10765538676674985    0.27478454583280865     0.7845874544905151
                  180.0      33.25319999999994     0.2530680961626806    0.22634597067690265     0.6116804478753384
                  181.0      33.50399999999994    -0.0264884807885985     0.5301203211548255     0.6834518212160077
                  182.0      33.75479999999994    -0.2568748998683021     0.1890698924369758    0.36199467124410795
                  183.0     34.005599999999944                    nan                    nan                    nan
                  184.0      34.25639999999994     0.6799916111721045    -0.5401892177371721     0.4943493927639551
                  185.0      34.50719999999994     1.3055341613191287    -0.5976123245632792     0.5425419563246743
#------------------------------------------------------------------------------------------------------------------
# experiment: 230317_MKUM0019_DW
# path: /Users/andreapicco/Google Drive/RESEARCH/EvoCellBio/Protein_tracking/Data/Rvs167/24_degree/Um/230317_MKUM0019_DW
# file: 16.W1data.txt
# protein: Fim1-mCherry
# date: 17/03/23
# notes: the trajectory of the reference protein
# t_unit: s
# delta_t: 0.2508
# coord_unit: pxl
# intensity_normalisation: Absolute
# aligned_to: ../../../Fimbrin/24_degree/Um/fim1_um_24deg.txt
# alignment_angle: 0.3212825448522555 rad
# alignment_translation: [ -0.06362467 -54.78356399] pxl
# alignment_lag: -11.890800000000063 s
