#                frames                  t (s)                x (pxl)                y (pxl)                      f
                  125.0     30.479999999999908    -0.6074184351778911     1.1247761557359013                    0.0
                  126.0     30.730799999999913                    nan                    nan                    nan
                  127.0      30.98159999999991                    nan                    nan                    nan
                  128.0      31.23239999999991     -0.633265134753259     0.3323695752262097                    1.0
                  129.0     31.483199999999908    -0.3790559537639524    0.36623163205619846     0.8957913973371148
                  130.0     31.733999999999913    -0.2112979350061721      0.351466229844803     0.6591123620778283
                  131.0      31.98479999999991                    nan                    nan                    nan
                  132.0     32.235599999999906   -0.27077625567645214     0.5765835681824854     0.6315524176770536
                  133.0      32.48639999999992                    nan                    nan                    nan
                  134.0     32.737199999999916     0.8331488823666007     0.5437482715852013     0.2489101990720465
                  135.0     32.987999999999914                    nan                    nan                    nan
                  136.0      33.23879999999991                    nan                    nan                    nan
                  137.0      33.48959999999991   0.034208384472663056     0.2060806259187018     0.6091966977141642
                  138.0      33.74039999999991     -0.524340823613926  -0.002232557108342803     0.8757833798641594
                  139.0      33.99119999999991   -0.28590502620900793    -0.4710170095274435      0.864997358418608
                  140.0     34.241999999999905                    nan                    nan                    nan
                  141.0       34.4927999999999    -1.3118746485137365    -0.1756584876224352     0.5255068341110662
                  142.0     34.743599999999915    -1.0230544736267575   -0.15592599268993013     0.5092307933731733
                  143.0     34.994399999999914    -1.0780140926836026     0.1582665644054444    0.21077394292757598
                  144.0      35.24519999999991     -1.408819709729272   -0.10175130646314301    0.09806567765478931
                  145.0      35.49599999999991    -1.4954205940269816   -0.09153934857758372     0.1989607719219157
                  146.0      35.74679999999991    -0.9834608347854754  -0.055286354558091944    0.18053294796203534
#------------------------------------------------------------------------------------------------------------------
# experiment: 230317_MKUM0019_DW
# path: /Users/andreapicco/Google Drive/RESEARCH/EvoCellBio/Protein_tracking/Data/Rvs167/24_degree/Um/230317_MKUM0019_DW
# file: 18.W2data.txt
# protein: Rvs167-GFP
# date: 17/03/23
# notes: the trajectory of the target protein
# t_unit: s
# delta_t: 0.2508
# coord_unit: pxl
# intensity_normalisation: Absolute
# aligned_to: ../../../Fimbrin/24_degree/Um/fim1_um_24deg.txt
# alignment_angle: -0.3949984809326111 rad
# alignment_translation: [-128.82760152   33.44840975] pxl
# alignment_lag: -0.8700000000000934 s
