#                frames                  t (s)                x (pxl)                y (pxl)                      f
                   81.0     29.735999999999926     -0.744663758667798    0.20854035899621692                    0.0
                   82.0     29.986799999999928                    nan                    nan                    nan
                   83.0     30.237599999999926  -0.035900489361608834     0.4466912738031823    0.16042561442667908
                   84.0     30.488399999999928    -0.5690046018634973     0.3071943500750791     0.2962558464449911
                   85.0     30.739199999999926   -0.25896862702339263   0.016861494493852547     0.6165711553216335
                   86.0     30.989999999999927   -0.21111415215848695    0.07109577262497169     0.6768669305919925
                   87.0     31.240799999999926   -0.44966451837014176     0.1736303356819775     0.6746105721164736
                   88.0     31.491599999999927     -0.605392216927882   -0.01522126663557799     0.5913586288093219
                   89.0      31.74239999999993                    nan                    nan                    nan
                   90.0     31.993199999999927                    nan                    nan                    nan
                   91.0      32.24399999999993    -0.1399931932607359     0.0636393381913507     0.8322964648791251
                   92.0      32.49479999999993                    nan                    nan                    nan
                   93.0     32.745599999999925     0.1898062843527839   0.058389861850500324     0.7542237541552709
                   94.0      32.99639999999992    0.30042576638683727     0.4237441121001808                    1.0
                   95.0     33.247199999999935                    nan                    nan                    nan
                   96.0     33.497999999999934                    nan                    nan                    nan
                   97.0      33.74879999999993    0.28092892852141915    0.37962661768754913     0.7768275528165859
                   98.0      33.99959999999993                    nan                    nan                    nan
                   99.0      34.25039999999993  -0.047795395548746455   -0.20631712402628466     0.4344145034438631
                  100.0     34.501199999999926    0.25354015281563136   -0.44908025625180414     0.7784882676924266
                  101.0     34.751999999999924                    nan                    nan                    nan
                  102.0      35.00279999999992   0.033122492362807066     1.2488194813877698     0.3699388708811105
#------------------------------------------------------------------------------------------------------------------
# experiment: 230317_MKUM0019_DW
# path: /Users/andreapicco/Google Drive/RESEARCH/EvoCellBio/Protein_tracking/Data/Rvs167/24_degree/Um/230317_MKUM0019_DW
# file: 24.W1data.txt
# protein: Fim1-mCherry
# date: 17/03/23
# notes: the trajectory of the reference protein
# t_unit: s
# delta_t: 0.2508
# coord_unit: pxl
# intensity_normalisation: Absolute
# aligned_to: ../../../Fimbrin/24_degree/Um/fim1_um_24deg.txt
# alignment_angle: 1.1173467155900743 rad
# alignment_translation: [  72.90415846 -112.69428572] pxl
# alignment_lag: 9.421199999999924 s
