#                frames                  t (s)                x (pxl)                y (pxl)                      f
                    9.0     29.483999999999924    0.15571803045986599   -0.28596193888873245                    0.0
                   10.0      29.73479999999992                    nan                    nan                    nan
                   11.0     29.985599999999923   -0.31466409422150576   -0.10459709249277438     0.2575129915717241
                   12.0      30.23639999999992                    nan                    nan                    nan
                   13.0     30.487199999999923   -0.07859138695773282   -0.10220601529870521    0.29681176085466504
                   14.0      30.73799999999992    -0.3617184379553393   -0.03744414520988215    0.34058703858151795
                   15.0     30.988799999999923                    nan                    nan                    nan
                   16.0     31.239599999999925   -0.44266852543239565  0.0019754641546967378    0.21322875236441868
                   17.0     31.490399999999923                    nan                    nan                    nan
                   18.0      31.74119999999992    -0.4386857513125122    0.26688599388182865     0.4673930413432221
                   19.0     31.991999999999923                    nan                    nan                    nan
                   20.0     32.242799999999924   -0.15658807709540667    0.12932940848039465     0.6904309216764513
                   21.0      32.49359999999992   -0.23821343353092317   -0.05105949530189946     0.8367059921176958
                   22.0      32.74439999999992    0.02121233552258417    0.28862842425220236                    1.0
                   23.0     32.995199999999926    0.36582652590919196    0.22503760273535534     0.9796900269657774
                   24.0     33.245999999999924    0.38000203935971655    -0.2209379357221053     0.7793104002290612
                   25.0      33.49679999999992   -0.05631337737420239  -0.008415353615376375      0.929847951343971
                   26.0      33.74759999999992    0.14240796841749415  -0.008257649023732938     0.8170911789860305
                   27.0     33.998399999999926                    nan                    nan                    nan
                   28.0     34.249199999999924    0.03823117703102952     0.4051191328332351     0.7044440026176799
                   29.0      34.49999999999992    0.31028247128465125     0.6690944116301836     0.6955291434958651
                   30.0      34.75079999999993    -0.1529521903792883    0.16692280104859947     0.5436181997051236
                   31.0     35.001599999999925                    nan                    nan                    nan
                   32.0      35.25239999999992    -0.1729116658418306   -0.03631835034367725     0.5682864781787784
                   33.0      35.50319999999992                    nan                    nan                    nan
                   34.0      35.75399999999992                    nan                    nan                    nan
                   35.0     36.004799999999925    -2.7039896927568634    -0.4719099012453043     0.4041647623646224
                   36.0      36.25559999999992     -2.613428102210335    -0.9385120570426011     0.5792828004013163
#------------------------------------------------------------------------------------------------------------------
# experiment: 230317_MKUM0019_DW
# path: /Users/andreapicco/Google Drive/RESEARCH/EvoCellBio/Protein_tracking/Data/Rvs167/24_degree/Um/230317_MKUM0019_DW
# file: 26.W1data.txt
# protein: Fim1-mCherry
# date: 17/03/23
# notes: the trajectory of the reference protein
# t_unit: s
# delta_t: 0.2508
# coord_unit: pxl
# intensity_normalisation: Absolute
# aligned_to: ../../../Fimbrin/24_degree/Um/fim1_um_24deg.txt
# alignment_angle: 0.3633949435124495 rad
# alignment_translation: [-57.07431754 -53.1037901 ] pxl
# alignment_lag: 27.226799999999923 s
