#                frames                  t (s)                x (pxl)                y (pxl)                      f
                  190.0      29.98799999999993     0.3297333991934437   -0.29725942288911256                    0.0
                  191.0     30.238799999999934    0.24573903551325316    -0.5016645034765759     0.1388291559593982
                  192.0     30.489599999999932     0.2744839425364063   -0.07117016609194593    0.07747683249730342
                  193.0      30.74039999999993   -0.21779789566332397    0.06043945277653506    0.12161722722545124
                  194.0     30.991199999999935   -0.09458866080058215     0.3114417648068013     0.4344876458195997
                  195.0     31.241999999999933    0.24489177098708126    0.07002438756720153     0.7779567019653159
                  196.0      31.49279999999993                    nan                    nan                    nan
                  197.0      31.74359999999993    -0.3170853664031483  -0.013121231383451004     0.6138707926873365
                  198.0     31.994399999999935    -0.5511164984886392    0.02008017242394544     0.9108513559707405
                  199.0      32.24519999999993                    nan                    nan                    nan
                  200.0      32.49599999999993   -0.17065380006793873    0.17628647194618452                    1.0
                  201.0     32.746799999999936                    nan                    nan                    nan
                  202.0     32.997599999999935    0.25505460737872454    0.21524861163629794     0.7152765818184466
                  203.0      33.24839999999993                    nan                    nan                    nan
                  204.0      33.49919999999993    -0.4572118199100146     -1.000179656365276     0.8245867154774161
                  205.0     33.749999999999936                    nan                    nan                    nan
                  206.0     34.000799999999934    -0.1354601067935164     -1.434174532379501      0.701849289873313
                  207.0      34.25159999999993                    nan                    nan                    nan
                  208.0      34.50239999999993    -0.4359603335666833     -1.359116979066897     0.5604644374736273
                  209.0     34.753199999999936                    nan                    nan                    nan
                  210.0     35.003999999999934    -1.1581023925020446    -2.1866185792566455     0.0752853436116173
#------------------------------------------------------------------------------------------------------------------
# experiment: 230317_MKUM0019_DW
# path: /Users/andreapicco/Google Drive/RESEARCH/EvoCellBio/Protein_tracking/Data/Rvs167/24_degree/Um/230317_MKUM0019_DW
# file: 27.W1data.txt
# protein: Fim1-mCherry
# date: 17/03/23
# notes: the trajectory of the reference protein
# t_unit: s
# delta_t: 0.2508
# coord_unit: pxl
# intensity_normalisation: Absolute
# aligned_to: ../../../Fimbrin/24_degree/Um/fim1_um_24deg.txt
# alignment_angle: 0.6493771530598613 rad
# alignment_translation: [ -13.89951951 -160.47409194] pxl
# alignment_lag: -17.664000000000073 s
