#                frames                  t (s)                x (pxl)                y (pxl)                      f
                   41.0     28.475999999999914    -1.3023192197108726      3.974365396216484    0.02467427144266557
                   42.0     28.726799999999912                    nan                    nan                    nan
                   43.0     28.977599999999914    -0.8026246587377399     2.6060329694897533                    0.0
                   44.0     29.228399999999915                    nan                    nan                    nan
                   45.0     29.479199999999913                    nan                    nan                    nan
                   46.0      29.72999999999991    -0.6310046089143226     1.0645617151163194     0.1878726306815097
                   47.0     29.980799999999913    -0.6069876915772048     0.8410190088281908    0.12882670218453476
                   48.0     30.231599999999915                    nan                    nan                    nan
                   49.0     30.482399999999913    -0.7948012150783035    0.48007459075927983    0.08439080676789525
                   50.0      30.73319999999991     -0.997497216342625   -0.09543430672228936    0.08397650772812007
                   51.0     30.983999999999913   -0.44477852011202246   -0.09260493892250565    0.12253517751026333
                   52.0     31.234799999999915    -0.5063531185739427    -0.3943507505723929    0.25228683776352867
                   53.0     31.485599999999913     -0.707056767209066   -0.35103751277437567      0.394731114053542
                   54.0      31.73639999999991    -0.2619355540446142     0.1975852895616299     0.4431160570470702
                   55.0     31.987199999999913     -0.250105596325332     0.1306048916503073    0.46703681293982596
                   56.0     32.237999999999914                    nan                    nan                    nan
                   57.0      32.48879999999991    0.12086145941437265   -0.03936006977649953     0.9329840732101132
                   58.0      32.73959999999991    0.08669207963464998     -0.081866154405283     0.7747643949350842
                   59.0     32.990399999999916    0.31574010536803754     0.4898651873345585     0.9286429823269912
                   60.0     33.241199999999914  -0.041106859856848255     0.5573682475450923     0.8582114118597136
                   61.0      33.49199999999991     0.6187688153277244     0.6867189889797629                    1.0
                   62.0      33.74279999999992                    nan                    nan                    nan
                   63.0     33.993599999999915    0.28767443390879577     0.6494426154863575     0.8379124708902342
#------------------------------------------------------------------------------------------------------------------
# experiment: 230317_MKUM0019_DW
# path: /Users/andreapicco/Google Drive/RESEARCH/EvoCellBio/Protein_tracking/Data/Rvs167/24_degree/Um/230317_MKUM0019_DW
# file: 29.W1data.txt
# protein: Fim1-mCherry
# date: 17/03/23
# notes: the trajectory of the reference protein
# t_unit: s
# delta_t: 0.2508
# coord_unit: pxl
# intensity_normalisation: Absolute
# aligned_to: ../../../Fimbrin/24_degree/Um/fim1_um_24deg.txt
# alignment_angle: 0.6653054194746948 rad
# alignment_translation: [  1.15768615 -59.81816871] pxl
# alignment_lag: 18.193199999999912 s
