#               frames                 t (s)               x (pxl)               y (pxl)                     f
                  58.0     29.24159999999994   0.10518273534070488   -1.3867546743049486   0.06912761520721963
                  59.0    29.492399999999947                   nan                   nan                   nan
                  60.0    29.743199999999945                   nan                   nan                   nan
                  61.0    29.993999999999943    0.9466687074377944   -1.7991802147468823                   0.0
                  62.0     30.24479999999994    0.9994421941889158    -1.972424546605473  0.018973106127012855
                  63.0    30.495599999999943                   nan                   nan                   nan
                  64.0     30.74639999999994    0.6470440633536754   -0.8977455148365321    0.1349674475267105
                  65.0    30.997199999999943    0.5854559435319402   -0.9103754588119832   0.23551486079059217
                  66.0     31.24799999999994    0.7109112642257287    -0.668431158760046    0.3015932872077943
                  67.0    31.498799999999942    0.2691397766312775  -0.37358145277309784   0.17154219145594338
                  68.0    31.749599999999944                   nan                   nan                   nan
                  69.0     32.00039999999994    0.4299682438081902    0.7281423090903418   0.43422931818005445
                  70.0     32.25119999999994   0.19691192570573435    0.2859341250836218    0.5502656473650873
                  71.0     32.50199999999994                   nan                   nan                   nan
                  72.0     32.75279999999994   0.31142931659918816     0.325122720452101    0.7729236890905983
                  73.0     33.00359999999994                   nan                   nan                   nan
                  74.0     33.25439999999994    0.3476025746022344     0.507073431732505                   1.0
                  75.0    33.505199999999945    0.1345518936168162    0.6203067934491289    0.8434962014983868
                  76.0     33.75599999999994   -0.9379479355810361   0.29220512454055925    0.1952816076983709
                  77.0     34.00679999999994  -0.45997912936881846    -0.287831115547994     0.263167896815913
                  78.0     34.25759999999994  -0.05762056548697103   -0.6005139669788724   0.09164062992821678
                  79.0    34.508399999999945                   nan                   nan                   nan
                  80.0     34.75919999999994                   nan                   nan                   nan
                  81.0     35.00999999999994   -0.5676728496721921   -1.2552552151047562   0.10931708956591593
                  82.0    35.260799999999946                   nan                   nan                   nan
                  83.0    35.511599999999945                   nan                   nan                   nan
                  84.0     35.76239999999994     0.814847465840856   -1.2680280571791611   0.08211437751317292
#-------------------------------------------------------------------------------------------------------------
# experiment: 230317_MKUM0019_DW
# path: /Users/andreapicco/Google Drive/RESEARCH/EvoCellBio/Protein_tracking/Data/Rvs167/24_degree/Um/230317_MKUM0019_DW
# file: 33.W2data.txt
# protein: Rvs167-GFP
# date: 17/03/23
# notes: the trajectory of the target protein
# t_unit: s
# delta_t: 0.2508
# coord_unit: pxl
# intensity_normalisation: Absolute
# aligned_to: ../../../Fimbrin/24_degree/Um/fim1_um_24deg.txt
# alignment_angle: -1.2588453769155759 rad
# alignment_translation: [-81.94540589   3.62890273] pxl
# alignment_lag: 14.69519999999994 s
