#                frames                  t (s)                x (pxl)                y (pxl)                      f
                   57.0      30.49079999999993    -1.6379193816924271     0.5291454251061722     0.3962764511984597
                   58.0     30.741599999999934                    nan                    nan                    nan
                   59.0     30.992399999999932    -1.3016438308124663   -0.03314937141018959     0.6421676101233281
                   60.0      31.24319999999993     -1.362393428667957     0.5961814373679815     0.7667744876170263
                   61.0     31.493999999999932                    nan                    nan                    nan
                   62.0      31.74479999999993    -1.0411321771853324     0.4686441564779855     0.6786248374421276
                   63.0     31.995599999999932    -0.5285858740300853     0.3154175112399926     0.8767490554694244
                   64.0      32.24639999999993    -0.5157559681099997   -0.16130602890783763                    1.0
                   65.0     32.497199999999935                    nan                    nan                    nan
                   66.0     32.747999999999934    -0.4364036520362049    0.37543805653299245     0.8632463164288088
                   67.0      32.99879999999993                    nan                    nan                    nan
                   68.0      33.24959999999993    -0.0993226540497858    0.12290554555178801     0.8637522699270316
                   69.0     33.500399999999935                    nan                    nan                    nan
                   70.0      33.75119999999993                    nan                    nan                    nan
                   71.0      34.00199999999993    0.30456615727126746  -0.014563408316647042    0.39653755233929255
                   72.0      34.25279999999994                    nan                    nan                    nan
                   73.0     34.503599999999935    -0.5772450891458618     0.8264336898188276    0.28752782604164495
                   74.0      34.75439999999993    -0.3538217583218284     0.6131046422714022     0.6539563826622119
                   75.0      35.00519999999993                    nan                    nan                    nan
                   76.0      35.25599999999993     -1.002531154681762     0.7004530005406693                    0.0
                   77.0      35.50679999999993                    nan                    nan                    nan
                   78.0     35.757599999999925    -1.4174619004920999     1.1772790762729741    0.03357671022647998
                   79.0      36.00839999999993     -1.240905386318346     0.8324846829531012   0.013236034871009968
                   80.0      36.25919999999993    -0.6927393953698981      0.607091728272863     0.2304228773906022
                   81.0     36.509999999999934    -0.9555827080676238     0.6324699783916117     0.2689728359562046
                   82.0      36.76079999999993   -0.36989630029144394     0.5052261053121541     0.5313178491765507
                   83.0      37.01159999999993    0.14293550224269325     0.3921014603996369     0.6613988857816981
#------------------------------------------------------------------------------------------------------------------
# experiment: 230317_MKUM0019_DW
# path: /Users/andreapicco/Google Drive/RESEARCH/EvoCellBio/Protein_tracking/Data/Rvs167/24_degree/Um/230317_MKUM0019_DW
# file: 37.W2data.txt
# protein: Rvs167-GFP
# date: 17/03/23
# notes: the trajectory of the target protein
# t_unit: s
# delta_t: 0.2508
# coord_unit: pxl
# intensity_normalisation: Absolute
# aligned_to: ../../../Fimbrin/24_degree/Um/fim1_um_24deg.txt
# alignment_angle: 2.9362856537851756 rad
# alignment_translation: [87.79381647 37.00785384] pxl
# alignment_lag: 16.19519999999993 s
