#                frames                  t (s)                x (pxl)                y (pxl)                      f
                  174.0     30.743999999999936   -0.39452987203127954   -0.34253094295073083                    0.0
                  175.0      30.99479999999994                    nan                    nan                    nan
                  176.0      31.24559999999994                    nan                    nan                    nan
                  177.0     31.496399999999937    -0.4873932754659567    0.47104811803015423      0.250116270255098
                  178.0     31.747199999999935   -0.34933309152504854  -0.051723814872900675     0.4080281794024426
                  179.0      31.99799999999994   -0.40855996292619956   0.025714604713442668     0.4747314515649875
                  180.0      32.24879999999994                    nan                    nan                    nan
                  181.0      32.49959999999994   -0.10052149377249897    0.09433094811970477     0.7560680780270732
                  182.0     32.750399999999935    0.19973247171832575    0.11120228496767481                    1.0
                  183.0      33.00119999999994    0.21534754394419586    0.37629780603199947     0.8683830956366385
                  184.0      33.25199999999994                    nan                    nan                    nan
                  185.0      33.50279999999994    0.17603936983134894    -0.3601052667297324    0.25435065879648516
                  186.0     33.753599999999935  -0.029018368666990924    -0.8720433922702284     0.5919687473749559
                  187.0      34.00439999999994  0.0013479367968098899    -0.7179484316502567     0.9187598727276081
                  188.0      34.25519999999994    -0.2714917564739583     -0.515014513093206     0.5016749063179311
                  189.0     34.505999999999936   -0.43382765719986516    -0.9388177753936873     0.3264300216969517
                  190.0      34.75679999999994                    nan                    nan                    nan
                  191.0      35.00759999999994    -0.6058438143919549    -1.3756696556572763     0.0345752908805193
#------------------------------------------------------------------------------------------------------------------
# experiment: 230317_MKUM0019_DW
# path: /Users/andreapicco/Google Drive/RESEARCH/EvoCellBio/Protein_tracking/Data/Rvs167/24_degree/Um/230317_MKUM0019_DW
# file: 40.W1data.txt
# protein: Fim1-mCherry
# date: 17/03/23
# notes: the trajectory of the reference protein
# t_unit: s
# delta_t: 0.2508
# coord_unit: pxl
# intensity_normalisation: Absolute
# aligned_to: ../../../Fimbrin/24_degree/Um/fim1_um_24deg.txt
# alignment_angle: -2.2389850602232926 rad
# alignment_translation: [  8.62278854 166.42602947] pxl
# alignment_lag: -12.895200000000067 s
