#                frames                  t (s)                x (pxl)                y (pxl)                      f
                   10.0     29.986799999999924    -1.1355142311986555   -0.14902457833082394    0.10680028814225925
                   11.0     30.237599999999926     -1.196408419594718    0.20506536511375373                    0.0
                   12.0     30.488399999999924    -1.1264801264333784   -0.06637006966317927    0.11072708496353659
                   13.0     30.739199999999926    -0.6169890698036227   -0.06537261274560535    0.09639478760137926
                   14.0     30.989999999999924                    nan                    nan                    nan
                   15.0     31.240799999999926    -0.2060219745347922   -0.28269689788491803     0.7888074230155674
                   16.0     31.491599999999927   -0.11849551019648175    -0.1507008719052152                    1.0
                   17.0     31.742399999999925   -0.26895793735386064  -0.040790054157753275     0.7433322131435063
                   18.0     31.993199999999923    -0.1131304803168689    0.20335615508251692     0.7311356353643111
                   19.0      32.24399999999993                    nan                    nan                    nan
                   20.0      32.49479999999993   -0.29837565153702883    0.22693483512644264     0.4972870147104637
                   21.0     32.745599999999925    -0.2675066865643174      0.163750880110058       0.72013815129431
                   22.0      32.99639999999992   -0.27366092200924186    0.24148981621087273     0.5286065410909341
                   23.0      33.24719999999993                    nan                    nan                    nan
                   24.0      33.49799999999993    -0.2599834718158007    0.11060494613720095     0.4861844617406116
                   25.0     33.748799999999925    0.15620612871724404   -0.10009373987711001    0.16990336114184149
                   26.0      33.99959999999992                    nan                    nan                    nan
                   27.0      34.25039999999993     0.3136900311658479    0.09135673373303632    0.32187673496553987
#------------------------------------------------------------------------------------------------------------------
# experiment: 230317_MKUM0019_DW
# path: /Users/andreapicco/Google Drive/RESEARCH/EvoCellBio/Protein_tracking/Data/Rvs167/24_degree/Um/230317_MKUM0019_DW
# file: 42.W2data.txt
# protein: Rvs167-GFP
# date: 17/03/23
# notes: the trajectory of the target protein
# t_unit: s
# delta_t: 0.2508
# coord_unit: pxl
# intensity_normalisation: Absolute
# aligned_to: ../../../Fimbrin/24_degree/Um/fim1_um_24deg.txt
# alignment_angle: -1.4843580021987017 rad
# alignment_translation: [-103.95688987   86.75140824] pxl
# alignment_lag: 27.478799999999925 s
