#                frames                  t (s)                x (pxl)                y (pxl)                      f
                    9.0     29.735999999999926    -1.2113887423755614    0.13957760661354257     0.3578749894291391
                   10.0     29.986799999999924     -1.110233760580428    0.08442548104231662    0.18157114922949208
                   11.0     30.237599999999926    -0.9703927310336269    -0.0965174858265101    0.19388339779401226
                   12.0     30.488399999999924    -1.1292147721278951   -0.07794838084940636     0.2580204789937575
                   13.0     30.739199999999926     -0.499868404852009    0.03661426391158784     0.5422126839977013
                   14.0     30.989999999999924    -0.5100576008417335  -0.024578839180847467     0.5137662812832766
                   15.0     31.240799999999926   -0.16179933909630506  -0.060823769751124246     0.2582888494243412
                   16.0     31.491599999999927   -0.27713485175078745   0.009926374974682517      0.619593975385858
                   17.0     31.742399999999925    -0.5019101702932289     0.1880915321298886     0.7265227648885185
                   18.0     31.993199999999923    0.12965387898300662     0.3264996572917198     0.6894099819993338
                   19.0      32.24399999999993   -0.19533981213196228  0.0027138725134534525     0.5687882600449068
                   20.0      32.49479999999993  -0.012020163932206174    0.02054957989825823                    1.0
                   21.0     32.745599999999925     0.2595089905598371    0.24708063512215972     0.9523551878334138
                   22.0      32.99639999999992     0.1547117106370166    0.17792823165139282     0.8974143242501593
                   23.0      33.24719999999993     0.2498228636010964    0.44839904027563193     0.8224785691972877
                   24.0      33.49799999999993     0.2824712780591483   -0.09486666271450872     0.7889564273423736
                   25.0     33.748799999999925     0.6235193625419129  -0.022665172039808112     0.5652925410278847
                   26.0      33.99959999999992      0.757084477579042    0.02699902094782658    0.31180243103915456
                   27.0      34.25039999999993     0.3836712878145363    0.15844774850306464     0.4566275415370119
                   28.0     34.501199999999926                    nan                    nan                    nan
                   29.0     34.751999999999924    0.20131820980836324   -0.34160284732367074      0.256205742609458
                   30.0      35.00279999999992      0.646484117481009    -0.3966689386138995    0.11967336470937459
                   31.0      35.25359999999993     0.6057408903609343   -0.23026105272849406     0.3361499284633161
                   32.0     35.504399999999926     0.5292742180401149   -0.16155797544531936    0.09967847323975755
                   33.0     35.755199999999924    0.11248856689411468    -0.1479174569873436                    0.0
#------------------------------------------------------------------------------------------------------------------
# experiment: 230317_MKUM0019_DW
# path: /Users/andreapicco/Google Drive/RESEARCH/EvoCellBio/Protein_tracking/Data/Rvs167/24_degree/Um/230317_MKUM0019_DW
# file: 42.W1data.txt
# protein: Fim1-mCherry
# date: 17/03/23
# notes: the trajectory of the reference protein
# t_unit: s
# delta_t: 0.2508
# coord_unit: pxl
# intensity_normalisation: Absolute
# aligned_to: ../../../Fimbrin/24_degree/Um/fim1_um_24deg.txt
# alignment_angle: -1.4843580021987017 rad
# alignment_translation: [-103.95688987   86.75140824] pxl
# alignment_lag: 27.478799999999925 s
