#               frames                 t (s)               x (pxl)               y (pxl)                     f
                  67.0     33.00599999999994    -1.379210806335351  -0.47374858598141145                   0.0
                  68.0     33.25679999999994     -1.45347294314098  -0.44955895320067896   0.19347197240021738
                  69.0     33.50759999999995   -1.3625336519517646   -0.7811251898774714   0.04063320375930433
                  70.0    33.758399999999945   -1.3831190965003657   -0.5338441889236236    0.3306692638629065
                  71.0     34.00919999999995     -1.62661752562461   -0.7546816132860528   0.04708989991306471
                  72.0     34.25999999999995   -1.6695476861649041  -0.12347638957430718   0.14453534250239616
                  73.0    34.510799999999946   -1.0821440469792094   -0.4557417810559059    0.6549838561162428
                  74.0    34.761599999999945    -1.522689008706834    0.3372902183567277     0.962991668281341
                  75.0     35.01239999999994   -2.3185677334536052     0.407178108698659    0.5146769594285254
                  76.0     35.26319999999994    -2.540254875204141    0.4575287368922005    0.4595528409977487
                  77.0    35.513999999999946   -1.9453965332304364   0.38646335991930414                   1.0
                  78.0     35.76479999999995                   nan                   nan                   nan
                  79.0     36.01559999999995   -3.2494313591631965    0.1325479134818437   0.15649964934421368
                  80.0     36.26639999999995   -3.7821358254713573   0.25195405491656686   0.12907819538300358
                  81.0    36.517199999999946   -3.9593782460079296    0.7149278709670313  0.034902682302428205
#-------------------------------------------------------------------------------------------------------------
# experiment: 230317_MKUM0019_DW
# path: /Users/andreapicco/Google Drive/RESEARCH/EvoCellBio/Protein_tracking/Data/Rvs167/24_degree/Um/230317_MKUM0019_DW
# file: 43.W2data.txt
# protein: Rvs167-GFP
# date: 17/03/23
# notes: the trajectory of the target protein
# t_unit: s
# delta_t: 0.2508
# coord_unit: pxl
# intensity_normalisation: Absolute
# aligned_to: ../../../Fimbrin/24_degree/Um/fim1_um_24deg.txt
# alignment_angle: -1.2898582411594668 rad
# alignment_translation: [-129.56195244   65.05785491] pxl
# alignment_lag: 16.202399999999944 s
