#                frames                  t (s)                x (pxl)                y (pxl)                      f
                   69.0      30.99599999999994    -0.6102426510273347    0.11369030800015878     0.2879803488904617
                   70.0     31.246799999999936    -0.6868461415581635   -0.24224990687797288     0.2919563678754319
                   71.0      31.49759999999994                    nan                    nan                    nan
                   72.0      31.74839999999994                    nan                    nan                    nan
                   73.0     31.999199999999938    -0.5204073168244605   0.037656576902335814     0.3712693645832269
                   74.0      32.24999999999994                    nan                    nan                    nan
                   75.0      32.50079999999994    0.05999954230549065     0.2177182273554905     0.6967173000619791
                   76.0      32.75159999999994    0.17600386375541177    0.22482361080351154                    1.0
                   77.0      33.00239999999994    0.37183620498564096     0.1906085518778582     0.8321321092499883
                   78.0     33.253199999999936  -0.042487173905669806    0.29059710468801825     0.8097422088016796
                   79.0     33.503999999999934   -0.26082370539761257     0.1937346316653219      0.827658056868501
                   80.0      33.75479999999993    -0.2805499106888192    0.14915971861091748     0.8444988912079823
                   81.0      34.00559999999994   -0.12912158606060586  -0.025029980066378243     0.8663361631161492
                   82.0      34.25639999999994    0.04916550704065514    0.09772684254440378     0.7294402151755645
                   83.0      34.50719999999994   -0.08732422247638283    0.23494293575640768      0.561879471204793
                   84.0      34.75799999999994    -0.3413640544948322     0.1491393927232565     0.4052405053546445
                   85.0      35.00879999999994   -0.49490136269650975  -0.021086847657556973    0.44150307107502157
                   86.0     35.259599999999935    -0.3452115362642303    0.09702553655205293    0.14518812543843038
                   87.0      35.51039999999993    -0.6949718629347927   -0.04989627422936849     0.3639964273566445
                   88.0      35.76119999999994    -0.4310343807628243    0.07422688546988354    0.25846912075110345
                   89.0     36.011999999999944                    nan                    nan                    nan
                   90.0      36.26279999999994                    nan                    nan                    nan
                   91.0      36.51359999999994    -2.0343115608681757    -0.5018910377485071    0.07604396519422124
                   92.0      36.76439999999994     -2.538880674041934   -0.23390379325350352    0.08618491492976862
                   93.0     37.015199999999936    -3.4066127520449925    -0.6544922262060595      0.008136247483321
                   94.0     37.265999999999934    -3.2920129094930246    -0.8682046691195495                    0.0
#------------------------------------------------------------------------------------------------------------------
# experiment: 230317_MKUM0019_DW
# path: /Users/andreapicco/Google Drive/RESEARCH/EvoCellBio/Protein_tracking/Data/Rvs167/24_degree/Um/230317_MKUM0019_DW
# file: 44.W1data.txt
# protein: Fim1-mCherry
# date: 17/03/23
# notes: the trajectory of the reference protein
# t_unit: s
# delta_t: 0.2508
# coord_unit: pxl
# intensity_normalisation: Absolute
# aligned_to: ../../../Fimbrin/24_degree/Um/fim1_um_24deg.txt
# alignment_angle: -1.4214257950355964 rad
# alignment_translation: [-125.52086964   80.39951028] pxl
# alignment_lag: 13.690799999999935 s
