#                frames                  t (s)                x (pxl)                y (pxl)                      f
                  149.0      30.23999999999993    -0.8902810322102255  -0.033999902850510466    0.09874101935691487
                  150.0      30.49079999999993                    nan                    nan                    nan
                  151.0     30.741599999999927    -0.5430880946944683     0.3166541665685827    0.30795006983973006
                  152.0     30.992399999999925    -0.3529863450479809    0.18180817921135883     0.7399381430637917
                  153.0      31.24319999999993    -0.2906703593911715     0.4377790447949792     0.9176722888232338
                  154.0      31.49399999999993     -0.499818521961501    0.13284453323969103      0.794490861760863
                  155.0     31.744799999999927     -0.569319945055824    -0.2380414615037978     0.8991805005297251
                  156.0     31.995599999999925   -0.29133828688904373   -0.28128883654368053     0.8014647299647033
                  157.0      32.24639999999993    -0.3023525202024615   -0.34737896368471866      0.815960457576542
                  158.0      32.49719999999993  0.0018767240540000785    0.18694476139508254     0.8826202840693127
                  159.0      32.74799999999993    0.38411942295928725     0.5463754776987884     0.8170051386806393
                  160.0     32.998799999999925    0.30908558181853607    0.25588904257202216                    1.0
                  161.0      33.24959999999993                    nan                    nan                    nan
                  162.0      33.50039999999993     0.4320456788084073     0.9672975909802091     0.3992866009543598
                  163.0      33.75119999999993                    nan                    nan                    nan
                  164.0      34.00199999999993                    nan                    nan                    nan
                  165.0      34.25279999999993     0.8054456333444762      3.237757641001224                    0.0
#------------------------------------------------------------------------------------------------------------------
# experiment: 230317_MKUM0019_DW
# path: /Users/andreapicco/Google Drive/RESEARCH/EvoCellBio/Protein_tracking/Data/Rvs167/24_degree/Um/230317_MKUM0019_DW
# file: 46.W1data.txt
# protein: Fim1-mCherry
# date: 17/03/23
# notes: the trajectory of the reference protein
# t_unit: s
# delta_t: 0.2508
# coord_unit: pxl
# intensity_normalisation: Absolute
# aligned_to: ../../../Fimbrin/24_degree/Um/fim1_um_24deg.txt
# alignment_angle: -0.30998280635721576 rad
# alignment_translation: [-106.58238749  -72.68799621] pxl
# alignment_lag: -7.1292000000000755 s
