#                frames                  t (s)                x (pxl)                y (pxl)                      f
                  103.0      29.99279999999994    -0.8245955114695604      0.444689824936205                    0.0
                  104.0     30.243599999999937    -0.5015959532056655   -0.35592836180848053    0.16547217489894187
                  105.0      30.49439999999994    -0.3978483198970437  -0.006310962408988985    0.10669734461311646
                  106.0     30.745199999999937    -0.5529322131120793     0.3794669507927324    0.11872948807430551
                  107.0      30.99599999999994   -0.34988935373884544   -0.17244252963820372    0.20524895591192513
                  108.0      31.24679999999994                    nan                    nan                    nan
                  109.0     31.497599999999938    -0.4135977881314403   -0.10148662293379118    0.16997448417877764
                  110.0      31.74839999999994                    nan                    nan                    nan
                  111.0     31.999199999999938   -0.15641750401049137   -0.28014425638244234     0.6657714626715434
                  112.0      32.24999999999994                    nan                    nan                    nan
                  113.0      32.50079999999994   -0.23160437161722314   -0.03359692805685199     0.6440490512828346
                  114.0      32.75159999999994     0.2814147495412911  -0.040765314328723434       0.60102318579867
                  115.0      33.00239999999994     0.7401077548130246   -0.22236466299159474      0.514110290165536
                  116.0     33.253199999999936                    nan                    nan                    nan
                  117.0     33.503999999999934    0.47951537324603066    -1.2271910212437405                    1.0
                  118.0      33.75479999999994                    nan                    nan                    nan
                  119.0      34.00559999999994    0.07034384950316763     -1.079879344347603     0.5258224031372106
                  120.0      34.25639999999994                    nan                    nan                    nan
                  121.0      34.50719999999994                    nan                    nan                    nan
                  122.0      34.75799999999994    -0.4950464125421554    -2.4347793365811015    0.16069952647340544
                  123.0      35.00879999999994                    nan                    nan                    nan
                  124.0     35.259599999999935    -1.3609077710617008    -1.0517250896176336     0.4654961999798499
#------------------------------------------------------------------------------------------------------------------
# experiment: 230317_MKUM0019_DW
# path: /Users/andreapicco/Google Drive/RESEARCH/EvoCellBio/Protein_tracking/Data/Rvs167/24_degree/Um/230317_MKUM0019_DW
# file: 47.W2data.txt
# protein: Rvs167-GFP
# date: 17/03/23
# notes: the trajectory of the target protein
# t_unit: s
# delta_t: 0.2508
# coord_unit: pxl
# intensity_normalisation: Absolute
# aligned_to: ../../../Fimbrin/24_degree/Um/fim1_um_24deg.txt
# alignment_angle: 0.8238130357433077 rad
# alignment_translation: [ 18.82038515 -83.67207255] pxl
# alignment_lag: 4.160399999999935 s
