#                 frames                   t (s)                 x (pxl)                 y (pxl)                       f
                    44.0                  2.6208                     nan                     nan                     nan
                    45.0      2.7215999999999996    -0.09528787017770456      0.5437616207426403                1.233687
                    46.0       2.822400000000001                     nan                     nan                     nan
                    47.0      2.9232000000000005                     nan                     nan                     nan
                    48.0                   3.024       1.075961435400894        1.18127415663326                1.881421
                    49.0      3.1247999999999996      0.5576187014427129      0.9062702203218174                1.701616
                    50.0       3.225600000000001                     nan                     nan                     nan
                    51.0      3.3264000000000005     0.45716923746408483      0.6614374521485143                1.970739
                    52.0                  3.4272     0.41448086199015455      0.6086039339105836                1.873371
                    53.0      3.5280000000000014                     nan                     nan                     nan
                    54.0       3.628800000000001                     nan                     nan                     nan
                    55.0      3.7296000000000005     0.28900902063779604      0.6749587026062429                1.301238
                    56.0                  3.8304      0.5767432646143192      0.2624945715702584                1.643472
                    57.0      3.9311999999999996     0.10722825369461955    -0.07874324965575208                1.567063
                    58.0                   4.032    0.010063349412862495   -0.014644772537171561                1.169508
                    59.0      4.1328000000000005      0.5064808999065877      0.6021918325875784                1.574203
                    60.0                  4.2336    -0.12713306453016004      0.2563402200125342                 1.14234
                    61.0                  4.3344      0.5675836054625556     0.41781835523592403                1.684515
                    62.0                  4.4352      0.6797832808161259      0.3581929500838363                 1.44566
                    63.0      4.5360000000000005      0.4277977747394256      0.1285568327998451                 1.34233
                    64.0                  4.6368      0.3718748313024362      0.3207996345437506                1.033685
                    65.0                  4.7376     0.40967476897171784      0.3349083508993023                1.444861
                    66.0                  4.8384     0.03736827193738398    -0.09230142257391416                1.527127
                    67.0      4.9392000000000005      0.2962192943754065   -0.003379754889447556                 1.56416
                    68.0                    5.04                     nan                     nan                     nan
                    69.0                  5.1408     0.38063064859938855      0.3873260847381005                1.324889
                    70.0                  5.2416     0.38695597016868016      0.3459281385083318                1.718914
                    71.0      5.3424000000000005     0.44889539783934984     0.37033866453361414                1.920314
                    72.0                  5.4432    -0.02715973583615934    -0.03854323772939851                1.702342
                    73.0                   5.544    -0.10353521150939939    0.057055420073328686                1.054049
                    74.0       5.644800000000001                     nan                     nan                     nan
                    75.0      5.7456000000000005    -0.15154427789893277     0.07055023705634836                2.248904
                    76.0                  5.8464     0.21810424032102826     0.17058715595017865                1.901637
                    77.0                  5.9472     -0.0377925496432598      0.3613838172888396                1.567169
                    78.0                   6.048    -0.00822043020112262     0.23568739587318444                1.784247
                    79.0      6.1488000000000005    -0.04924395485328391     0.34000217488897516                1.403883
                    80.0                  6.2496     0.24766334153271596     0.31450185126847274                1.512669
                    81.0                  6.3504     -0.3039718081504753     0.08171566469804817                1.571718
                    82.0       6.451199999999999    -0.48340433510898156     0.11611954749182468                1.688897
                    83.0      6.5520000000000005    -0.18090117489195287     0.10342767939821905                2.061477
                    84.0                  6.6528     0.07321427542994965    -0.09851440853962665                1.400237
                    85.0                  6.7536    -0.03383689888949538     0.25465970171453733                1.618705
                    86.0       6.854400000000001     0.06321466831938971    -0.06710799080957316                1.646957
                    87.0      6.9552000000000005     0.17889682431414566      0.3264617871223631                1.825203
                    88.0                   7.056    0.009367041604546253     0.11916464188287537                 1.52142
                    89.0                  7.1568     -0.0597182955132408      0.2536270242220085                1.491924
                    90.0       7.257599999999999    -0.03677446438719087     0.23837901837671274                2.227841
                    91.0      7.3584000000000005     0.44303071135247774      0.3192639056265864                2.280351
                    92.0                  7.4592     0.30325515672040865     0.11359374548590565                2.346613
                    93.0                    7.56      0.4397484410326135     0.31743096548919125                2.547428
                    94.0       7.660800000000001      0.4859759889160558      0.4732757461194097                2.738451
                    95.0      7.7616000000000005      0.3591988878611788      0.5432199452864327                2.385927
                    96.0                  7.8624     0.24152420893779825      0.2877386666488886                2.405823
                    97.0                  7.9632     0.23058975795320114      0.5428586568704858                2.503217
                    98.0                   8.064     0.16026947905196978      0.3715668360025415                2.684061
                    99.0                  8.1648     0.46614088112392976      0.5462202514359538                2.660913
                   100.0                  8.2656     -0.0350341720045378     0.29157697611402095                2.685881
                   101.0       8.366399999999999    -0.24999133900306705     0.11143624375743356                2.204197
                   102.0       8.467200000000002    -0.02538692442875609     0.16552955881318274                1.960058
                   103.0       8.568000000000001    0.008709117796604701     0.21139918917544692                 2.09105
                   104.0       8.668800000000001     0.48816116210851435      0.6005819369355633                2.267215
                   105.0                  8.7696      0.3862939590948551      0.4149007158005902                2.561899
                   106.0                  8.8704       0.319056289507168      0.5174565993393593                2.320247
                   107.0                  8.9712     0.42998876414018705       0.669795593562096                2.645579
                   108.0                   9.072     0.23189513154786523      0.3220713061282241                2.755686
                   109.0       9.172799999999999      0.2684541197668775      0.4017135907100131                3.096946
                   110.0       9.273600000000002    -0.01356714685697584      0.2520970334682673                 2.60722
                   111.0       9.374400000000001     0.24901648586477199     0.35818578665000445                2.468909
                   112.0       9.475200000000001    -0.09185108139783525      0.1744963086919737                2.207077
                   113.0                   9.576     0.26481515409216955       0.430332635030503                2.404488
                   114.0                  9.6768     0.40234987185990007      0.2823576048883988                 2.29789
                   115.0                  9.7776    -0.23636906377137346     0.23086786176337531                2.418833
                   116.0                  9.8784   -0.035528119212733966     0.24327105606114904                2.439018
                   117.0       9.979199999999999    -0.31287947454053033      0.1946681069446786                1.888904
                   118.0      10.080000000000002   -0.013617500725476975      0.3074082926519772                2.348849
                   119.0      10.180800000000001     0.39203947695620234     0.41131522022742034                2.738932
                   120.0      10.281600000000001    -0.04344098807534682     0.29395356811769524                2.668781
                   121.0                 10.3824    -0.10678346416038269     0.20799918065889847                2.982358
                   122.0                 10.4832      0.1957308376412811     0.32967126765693683                2.681812
                   123.0                  10.584    -0.13265842257656385      0.2683817375024101                2.237753
                   124.0                 10.6848     0.29451335450967886     0.40526090527443936                 2.78086
                   125.0      10.785599999999999    -0.01899237469808566     0.11149979713741355                2.171828
                   126.0      10.886400000000002    -0.16611895498040546     0.20516638025238515                2.297611
                   127.0      10.987200000000001   -0.032760514064999045      0.1967602374621822                2.406851
                   128.0      11.088000000000001      0.4395358771716593     0.47851783026284567                2.210748
                   129.0                 11.1888    -0.06514281798165898     0.39855889170460906                2.463278
                   130.0                 11.2896     0.15835685970836996      0.3349945165211713                2.537211
                   131.0                 11.3904     0.14191228453125676     0.40442175008443726                2.338238
                   132.0                 11.4912     0.18189542008511828      0.5222067897977622                2.743301
                   133.0      11.591999999999999       0.400636184224436      0.5233085650705215                2.929644
                   134.0      11.692800000000002     0.04995195798683805      0.1971630787149336                 2.88597
                   135.0      11.793600000000001      0.2679637036235294     0.38980229955385626                2.586966
                   136.0      11.894400000000001     0.10015677542588386     0.14600642046878776                2.951961
                   137.0                 11.9952    -0.08172121118143483     0.24117684514300275                2.661625
                   138.0                  12.096      0.3409492479512713     0.40420351732140425                2.460487
                   139.0                 12.1968     0.21049731971989324     0.40571528638966914                3.162214
                   140.0                 12.2976    -0.07894353353398433     0.25791886986784823                2.782273
                   141.0      12.398399999999999     0.08790684069917672       0.358093891980424                2.950176
                   142.0      12.499200000000002     0.08416707319305346     0.34332227257021053                3.254135
                   143.0      12.600000000000001    -0.12164303256326676      0.1085210897248583                2.850411
                   144.0      12.700800000000001  -0.0016445461454725196     0.43751146496773136                3.491151
                   145.0                 12.8016   -0.006557201753706332     0.41467507906991447                3.024642
                   146.0                 12.9024    0.026993631144856686     0.28326189316447303                3.266291
                   147.0                 13.0032    0.004653686202059221     0.11854932257574535                3.042971
                   148.0                  13.104     0.08567241428052819     0.12291630615095643                3.208321
                   149.0      13.204799999999999    -0.07501248243059995    0.055392733423119095                3.034794
                   150.0      13.305600000000002     0.15172066994140898    0.034753397860905665                3.616065
                   151.0      13.406400000000001      0.1645538055401558     -0.1669603441987456                4.035741
                   152.0      13.507200000000001     0.09259394753163375    -0.09676726394579746                3.502953
                   153.0                  13.608     0.11624838133171685    0.016334855307542414                3.772552
                   154.0                 13.7088     0.22805762650581285     0.17063996179013333                3.366631
                   155.0                 13.8096     0.08351564751128271     0.19423638305150623                3.052317
                   156.0                 13.9104    0.027158000531892892   -0.018559004022408378                2.950502
                   157.0      14.011199999999999    0.047007202842097945    -0.05647929950712119                3.202882
                   158.0      14.112000000000002      0.1682429578654957      0.1437580579986837                3.238205
                   159.0      14.212800000000001      0.2641856251177769     0.20563741158713553                2.843132
                   160.0      14.313600000000001     0.21050739282774328     0.19713118761765414                3.836757
                   161.0                 14.4144     0.09196763795302887     0.33187462746625335                3.572126
                   162.0                 14.5152     0.18548506959766747     0.21521777331448275                3.454177
                   163.0                  14.616    0.054314237138911814     0.20823081202393665                3.336581
                   164.0                 14.7168     0.19313260932709203     0.25040529636011355                 3.52201
                   165.0      14.817600000000002       0.134752641204867     0.24711823900651847                 3.24008
                   166.0      14.918400000000002     -0.1712742439765022     0.26488381446019565                3.050925
                   167.0      15.019200000000001     0.16057310583554607     0.08809741952914596                3.563848
                   168.0      15.120000000000001     0.14533955161881135      0.2714920989364761                3.778732
                   169.0                 15.2208  -0.0025798257832641835     0.26771216653277763                4.141734
                   170.0                 15.3216     0.14124779983158225     0.29394712875858825                3.977611
                   171.0                 15.4224      0.1284413030672657     0.22713974467100728                3.299122
                   172.0      15.523200000000003    -0.06071082993305005      0.2562591266944831                 3.29278
                   173.0      15.624000000000002     0.06133965745771353     0.05628637646165463                2.807526
                   174.0      15.724800000000002      -0.148801744896717     0.39790952014562886                2.500107
                   175.0      15.825600000000001     -0.2087822182438176     0.25343822227974255                2.734605
                   176.0      15.926400000000001    -0.14573575676841494      0.2839592281679586                2.879724
                   177.0                 16.0272     0.13121648383660026     0.06582501243401533                3.122069
                   178.0                  16.128      0.0167029219485927     0.13182505844703574                3.036356
                   179.0                 16.2288    -0.16544874255514122      0.0534709218585563                2.956101
                   180.0                 16.3296     0.09926729313934718     0.16050920469327712                3.327829
                   181.0      16.430400000000002     -0.1561866216638338     0.19751178719406162                 3.60716
                   182.0      16.531200000000002     0.14945918331989153    -0.12345846496315856                3.177317
                   183.0                  16.632   -0.016631911002972878     0.13648438727102857                 3.07454
                   184.0                 16.7328    -0.04348188944792543    -0.11379150079556939                 3.52233
                   185.0                 16.8336     0.13039637174676477     0.09653213397218238                2.917795
                   186.0                 16.9344   -0.028475454888667838       0.145463111803377                3.696864
                   187.0                 17.0352    -0.15236151571706125     0.14527412390886554                 3.55182
                   188.0      17.136000000000003    -0.08601560488131339     0.11542128318351064                3.465102
                   189.0      17.236800000000002   -0.008776181326810718       0.193864324289569                2.840199
                   190.0      17.337600000000002    -0.03252875605825073     0.09173912711656593                2.953232
                   191.0                 17.4384   -0.009165932288970724      0.2493414617805088                3.106362
                   192.0                 17.5392   -0.013769155067147529     0.08457112567582385                 2.94332
                   193.0                   17.64    -0.10430656517985001     0.21335258298268772                3.025427
                   194.0                 17.7408    0.041164862184186204     0.21178704771637763                3.133338
                   195.0                 17.8416     0.10388026621340418     0.06443624245408117                3.298643
                   196.0                 17.9424     0.03291959635372488     0.07713728166613318                3.105122
                   197.0      18.043200000000002    -0.22751076422367317      0.2420196522080949                3.202505
                   198.0      18.144000000000002    -0.08994728880309122     0.08020350097709715                3.922847
                   199.0                 18.2448    0.062453906301713116     0.03246046910193465                4.302276
                   200.0                 18.3456   0.0004256113232156307  -0.0030970316968775683                3.879398
                   201.0                 18.4464      0.2555091559184383  -0.0059454048683562355                3.647502
                   202.0                 18.5472    -0.07607962023311514    0.011046817479155917                3.566532
                   203.0                  18.648     0.14138274109117815    -0.06678851131991767                3.569807
                   204.0      18.748800000000003     0.08357537130407895    -0.03139462649076673                3.638465
                   205.0      18.849600000000002    0.058040791784285534     0.03169748662765389                3.335975
                   206.0      18.950400000000002      0.1285766656953054     0.05795950773431701                3.526944
                   207.0                 19.0512   -0.019239972053243584    0.012657132910129685                3.162418
