#                frames                  t (s)                x (pxl)                y (pxl)                      f
                   74.0      3.257999999999992    -0.2941577458007174   -0.27489374388414944  0.0049531442707401495
                   75.0     3.5294999999999916    -0.3672293746888897    0.07042520976540345    0.08469813231631096
                   76.0     3.8009999999999913   -0.43570057031097775     0.5510732928689208                    0.0
                   77.0      4.072499999999991    -0.3034391739454563    0.36714672279423155    0.05343969013294465
                   78.0      4.343999999999994    -0.5358720384740536     0.3857066991957936     0.3008485720734855
                   79.0      4.615499999999994    -0.5068862668753447    0.14902151281981446    0.17979723288783067
                   80.0      4.886999999999993    -0.6642464255989928     0.6474412049593639    0.17588065484962648
                   81.0      5.158499999999993    -0.6010853082137366     0.8076663353872959     0.2965717942116523
                   82.0      5.429999999999993    -0.5842211862317797     0.5234719859523125     0.3099531383203026
                   83.0      5.701499999999992   -0.32776799924625877     0.4358049569506761    0.32485105062910014
                   84.0      5.972999999999992   -0.38040686453235395     0.7034502316827229     0.4869453349164142
                   85.0     6.2444999999999915   -0.38815869463537567    0.21994498927159611     0.5333702524929359
                   86.0      6.515999999999991   -0.47506738466342213     0.5998853604110792     0.5447022658869742
                   87.0      6.787499999999994   -0.17199187682778927    0.34361814652061184     0.6684840625462398
                   88.0      7.058999999999994    -0.2875826520998146     0.5877721880129059     0.6883339290382546
                   89.0      7.330499999999994   -0.34369809795888173     0.5193625007454017     0.7656919982085216
                   90.0      7.601999999999993    -0.3117866998322718     0.3135392766923246     0.7035944213457271
                   91.0      7.873499999999993   -0.27505949471563085  -0.006439202973609781     0.8907392546005808
                   92.0      8.144999999999992    -0.3293702847556865     0.3314183234857353     0.8291101755260089
                   93.0      8.416499999999992    -0.1725415794941476       0.63052106834607     0.8894975966182475
                   94.0      8.687999999999992   -0.06508262710128676    0.28476938939768104     0.8485129658052152
                   95.0      8.959499999999991   -0.12570302248165888     0.2840049831393543     0.8903762779060648
                   96.0      9.230999999999995                    nan                    nan                    nan
                   97.0      9.502499999999994      0.392220304357469    -0.9592802900384925     0.8688491813982974
                   98.0      9.773999999999994    0.20446031673812115    -0.8904607604688834     0.8525719576503389
                   99.0     10.045499999999993    0.16205311276522139    -1.1070463985158199     0.8812237114624867
                  100.0     10.316999999999993    0.22675209110694183    -1.0880749339825542     0.9126840718289226
                  101.0     10.588499999999993    -0.4794189089815646    -1.5797969461845582                    1.0
                  102.0     10.859999999999992    0.22948856984758237    -1.9343498161674688     0.8126754635291729
                  103.0     11.131499999999992    0.16776539287114645    -2.4926715160573565     0.9839877690738303
                  104.0     11.402999999999992                    nan                    nan                    nan
                  105.0     11.674499999999991   -0.12385989431916755    -3.7564042472929486     0.5365969764636391
                  106.0     11.945999999999994  -0.010219717756193347     -4.088009121769701     0.6238359456415624
                  107.0     12.217499999999994                    nan                    nan                    nan
                  108.0     12.488999999999994      1.075959349888194     -4.371726413616955     0.4474859996120314
                  109.0     12.760499999999993    0.47614770411483676     -4.877279896806073     0.2955883852218105
                  110.0     13.031999999999993                    nan                    nan                    nan
                  111.0     13.303499999999993                    nan                    nan                    nan
                  112.0     13.574999999999992    0.37728857074528577     -6.735651214023221     0.3407339587111035
                  113.0     13.846499999999992    0.19341444794028106     -6.614737876840394    0.18468849260737463
                  114.0     14.117999999999995                    nan                    nan                    nan
                  115.0     14.389499999999995   -0.00470342266043744     -7.693597002186067     0.1591527846262907
                  116.0     14.660999999999994                    nan                    nan                    nan
                  117.0     14.932499999999994     -0.735246707366187        -9.006397827312    0.01528469075377365
#------------------------------------------------------------------------------------------------------------------
# experiment: sac6_and_rvs167_raw_trajectories
# path: /Users/andreapicco/Google Drive/RESEARCH/EvoCellBio/Protein_tracking/Data/Rvs167/24_degree/Sc/sac6_and_rvs167_raw_trajectories
# file: 01.W2data.txt
# protein: Rvs167-GFP
# date: 23/01/19
# notes: the trajectory of the target protein
# t_unit: s
# delta_t: 0.2715
# coord_unit: pxl
# intensity_normalisation: Absolute
# aligned_to: ../../../Fimbrin/24_degree/Sc/fim1_sc_24deg.txt
# alignment_angle: 0.9208417402172974 rad
# alignment_translation: [ 19.61775402 -72.48803627] pxl
# alignment_lag: -16.83300000000001 s
