#                frames                  t (s)                x (pxl)                y (pxl)                      f
                  163.0      1.311799999999998    0.13645945540606164   -0.14110376000422775    0.08557131019518419
                  164.0     1.5833000000000084                    nan                    nan                    nan
                  165.0     1.8548000000000044    -0.1634824300581954    0.19762749176499028     0.0438385009475341
                  166.0     2.1263000000000005   -0.46593689109583636    0.21038407216236976    0.12374091295378162
                  167.0     2.3978000000000037   -0.39208823591689423    0.17985241866534807     0.2738317800188121
                  168.0                 2.6693   -0.18181545010347122   0.004329901174671136    0.32353567052066956
                  169.0      2.940800000000003    -0.2781014469380949    -0.5050655229651255    0.42208927121814593
                  170.0      3.212299999999999   -0.46710612737306434    -0.1768757314973044     0.3717225281019342
                  171.0     3.4838000000000022  9.183749135388553e-05   -0.40988467734820233    0.45085854225148664
                  172.0     3.7552999999999983    -0.4130244099716407    0.06970539335394221     0.5030486056586796
                  173.0     4.0268000000000015    -0.2386035376180331  -0.008447529178809532      0.573277011244035
                  174.0      4.298300000000005   -0.09039970273593667     0.0913882562202133     0.6680951018208472
                  175.0      4.569800000000001   -0.14501195560484348  -0.008799110276683564     0.9097346388187036
                  176.0      4.841300000000004    0.12371239069108952    0.08705666098317977     0.9590607658380058
                  177.0                 5.1128      0.138304284295792    0.09234651599338406     0.8907450936269126
                  178.0      5.384300000000003    0.25581469321041084    -0.1562144339358298                    1.0
                  179.0      5.655799999999999  -0.005151573580590707    0.15041729799217762     0.9946314101910805
                  180.0     5.9273000000000025    -0.0354195217102955   -0.21660934687984934     0.8920444369435293
                  181.0     6.1987999999999985     0.2844017158599428     -0.326616334221697     0.8718552888654079
                  182.0      6.470300000000002   -0.05112967708401328    -0.3282143971380407     0.7904738920591127
                  183.0      6.741800000000005  -0.012956490784624464      -0.54158619161133     0.8348138128809738
                  184.0      7.013300000000001   -0.09640975866689416  -0.061986427155844126     0.8270207424764598
                  185.0      7.284800000000004    0.16767611404745253    -0.4096006136697241     0.8617866690800047
                  186.0                 7.5563    -0.1381693652922138   -0.17161060929873884     0.7211195061571372
                  187.0      7.827800000000003     0.1501507878629198    -0.5020246578039576     0.5240171966633973
                  188.0                 8.0993   -0.08065731963448286     -0.508442710894272     0.6151332051111671
                  189.0      8.370800000000003      0.150583091213484   -0.41993371303040306     0.7262429573608302
                  190.0      8.642299999999999     0.5402348956477283    -0.2274459180247561     0.5073640778453676
                  191.0      8.913800000000002      1.201898483137299     0.1770506676313488     0.4583461406024812
                  192.0      9.185299999999998     0.5912242068589961    0.36250671674535795    0.36901540432514734
                  193.0      9.456800000000001     0.5958402928437181     0.2038119708708308      0.368299827886609
                  194.0      9.728300000000004                    nan                    nan                    nan
                  195.0                 9.9998     1.3167506316640498     0.5253982380029214    0.33972596112949655
                  196.0     10.271300000000004     1.8407605742276019    0.14422581819196978     0.2721853834883659
                  197.0                10.5428      1.895038618307055     0.9429703999550725    0.29133962268765945
                  198.0     10.814300000000003     2.0323533051199263    -1.2384379953701767    0.09217592037724168
                  199.0     11.085799999999999     2.4754020447647918    -2.0080066591111603                    0.0
#------------------------------------------------------------------------------------------------------------------
# experiment: sac6_and_rvs167_raw_trajectories
# path: /Users/andreapicco/Google Drive/RESEARCH/EvoCellBio/Protein_tracking/Data/Rvs167/24_degree/Sc/sac6_and_rvs167_raw_trajectories
# file: 02.W1data.txt
# protein: Sac6-mCherry
# date: 23/01/19
# notes: the trajectory of the reference protein
# t_unit: s
# delta_t: 0.2715
# coord_unit: pxl
# intensity_normalisation: Absolute
# aligned_to: ../../../Fimbrin/24_degree/Sc/fim1_sc_24deg.txt
# alignment_angle: -2.810431134471507 rad
# alignment_translation: [43.01799942 78.50153765] pxl
# alignment_lag: -42.9427 s
