#                 frames                   t (s)                 x (pxl)                 y (pxl)                       f
                    55.0      1.0306999999999924     -0.9584868184818731      0.3243312031128962                     0.0
                    56.0       1.302199999999992     -1.0963581986160449      0.6462230979858514     0.05735801025910185
                    57.0      1.5736999999999917     -0.9371948958317233      0.6436017806092575     0.07829518346238304
                    58.0       1.845199999999993      -0.600808993710956     0.00875624865018132     0.12191488724970392
                    59.0       2.116699999999991     -0.3290775917869695      0.6919951511297011     0.19028287973922603
                    60.0       2.388199999999994     -0.6412458385045312     0.12632587384368854      0.2384346530034901
                    61.0      2.6596999999999937     -0.4044024172567191    -0.15120636775291452     0.38339621014688835
                    62.0      2.9311999999999934    -0.09129919520465535    0.013840917279649645      0.3538992518611391
                    63.0       3.202699999999993     -0.3032613861040687    -0.28911103773322644     0.43726287781807727
                    64.0      3.4741999999999926     -0.1550440330404541     -0.3374948818944272      0.5812454443347144
                    65.0      3.7456999999999923    -0.18264882370422697    -0.07035429085591183      0.5935885112792151
                    66.0       4.017199999999992    -0.22082026701197321    -0.07223712005790439      0.6372389785599378
                    67.0      4.2886999999999915    -0.08511050290002231    0.010701398597044331      0.7103202730793692
                    68.0       4.560199999999991     0.10762419836159154     -0.1802491572272178      0.7475635627138926
                    69.0       4.831699999999994     0.11587978155945677   -0.044063780603794456      0.8187929786407181
                    70.0       5.103199999999994   2.316051904927008e-06    0.016275035655281656      0.7878783883528995
                    71.0       5.374699999999994    -0.05434768918516397    -0.07011286567198916      0.8256883959475062
                    72.0       5.646199999999993     0.10118859596020968  -0.0036557185531496117      0.9089634983826146
                    73.0       5.917699999999993     0.11149128233191163     0.13965220547942714                     1.0
                    74.0      6.1891999999999925                     nan                     nan                     nan
                    75.0       6.460699999999992     0.11841547459350465   -0.007893030738232554      0.8346412003538428
                    76.0       6.732199999999992     0.12229410112031758    -0.18929162824180956      0.8094377375145735
                    77.0       7.003699999999991      0.3196383369960074    -0.04865451740815807      0.6877298237000697
                    78.0       7.275199999999995      0.3170738122433505     0.03789307439423162       0.826136663994219
                    79.0       7.546699999999994     0.24080580044939381  -0.0012845878892395746        0.88253891320321
                    80.0       7.818199999999994     0.32855784462478255      0.2009418871506039      0.7561961756582916
                    81.0       8.089699999999993     0.31564801542420184     0.06016688362010392      0.7203502183057017
                    82.0       8.361199999999993      0.3805624651346875     0.07035795990217686      0.7132323411792797
                    83.0       8.632699999999993     0.10246535315219774      0.1556086926380278      0.7539807855824271
                    84.0       8.904199999999992     0.30906065132893445     0.12592414082625503       0.790847379379377
                    85.0       9.175699999999992     0.35143873617140287     0.05583175543323371      0.7989894506330688
                    86.0       9.447199999999992     0.21971334515006902     0.30134596833805993       0.683171804065427
                    87.0       9.718699999999995     0.09438904266485793     0.31145197974694305       0.853430788732023
                    88.0       9.990199999999994    0.004850136312555264     0.21425407345656033       0.774951233584694
                    89.0      10.261699999999994     0.12181930134130425      0.0755084902818961      0.7721126211731103
                    90.0      10.533199999999994                     nan                     nan                     nan
                    91.0      10.804699999999993      0.6840384120322653       0.478343788846777      0.7753028163664296
                    92.0      11.076199999999993      0.6934652014926144      0.2115046895126067      0.9541063090065254
                    93.0      11.347699999999993      0.8546608977151209      0.5460227491033312      0.8417220357229035
                    94.0      11.619199999999992      0.6071421833129449      0.3051687480535197      0.7482510326174647
                    95.0      11.890699999999992      0.6642075751320391      0.2168499868612681      0.6975544696949244
                    96.0      12.162199999999991      0.3139022937149747      0.2740993326331367      0.7518899144084275
                    97.0      12.433699999999995                     nan                     nan                     nan
                    98.0      12.705199999999994     0.47746738037078273      0.9352907823277636      0.5328126141205272
                    99.0      12.976699999999994      0.0763943826695197       0.846402764868019      0.3669153487021049
                   100.0      13.248199999999994    -0.15277896508159472      1.0777800060252805     0.38927496724315774
                   101.0      13.519699999999993     -0.6249174636942598      1.1973161110303092      0.2586410362818781
                   102.0      13.791199999999993     -0.8042091098502198      1.0496555819113507     0.12243179764904127
                   103.0      14.062699999999992     -1.0064560563508422      0.8187335503072344       0.219765816568799
                   104.0      14.334199999999992     -0.8276391244284724     0.11380950677994228     0.20522514796298585
                   105.0      14.605699999999992    -0.48541748963751274    0.038380827983337085     0.22165076068492512
                   106.0      14.877199999999995                     nan                     nan                     nan
                   107.0      15.148699999999995     -0.1470088324472414      0.4191983463509583     0.09112837354666035
                   108.0      15.420199999999994                     nan                     nan                     nan
                   109.0      15.691699999999994      -0.345751066401462      1.0293929200394576     0.13995526946204276
#-----------------------------------------------------------------------------------------------------------------------
# experiment: sac6_and_rvs167_raw_trajectories
# path: /Users/andreapicco/Google Drive/RESEARCH/EvoCellBio/Protein_tracking/Data/Rvs167/24_degree/Sc/sac6_and_rvs167_raw_trajectories
# file: 04.W1data.txt
# protein: Sac6-mCherry
# date: 23/01/19
# notes: the trajectory of the reference protein
# t_unit: s
# delta_t: 0.2715
# coord_unit: pxl
# intensity_normalisation: Absolute
# aligned_to: ../../../Fimbrin/24_degree/Sc/fim1_sc_24deg.txt
# alignment_angle: -0.30780372037038767 rad
# alignment_translation: [-68.70786609  -7.08080319] pxl
# alignment_lag: -13.901800000000009 s
