#                frames                  t (s)                x (pxl)                y (pxl)                      f
                   71.0     1.0187999999999882    -0.6826733514896546    -0.0706579970793717    0.11137027192251366
                   72.0     1.2902999999999878    -0.9271612447543021    0.12301215731467696    0.15973358879802546
                   73.0     1.5617999999999874    -1.2201150789134658     0.1835790022336825    0.15789752281589628
                   74.0      1.833299999999987    -0.9060821205757748      0.327418275304983     0.2300931110679801
                   75.0     2.1047999999999867    -0.9702316508522415   0.058428013722321204     0.3679630877045854
                   76.0     2.3762999999999863    -0.9505487078826889    0.03565077787033122     0.6045117507184945
                   77.0      2.647799999999986      -0.84468306403474  -0.016850357714164765      0.634419957798506
                   78.0      2.919299999999989    -0.8849422851975248  -0.023962561899007362     0.7780163533383915
                   79.0     3.1907999999999888     -0.683970240366051    0.06569582023148701     0.8434304853379389
                   80.0     3.4622999999999884    -0.6651057097278397    0.07545071591519292     0.8990524384180979
                   81.0      3.733799999999988    -0.8468142631189153      0.132960351677597      0.909351377776025
                   82.0      4.005299999999988    -0.4145426629908826    0.16646821982457016                    1.0
                   83.0      4.276799999999987                    nan                    nan                    nan
                   84.0      4.548299999999987   -0.12168693187257418    -0.2579649581918977     0.6621015845799519
                   85.0     4.8197999999999865    0.07635557005545479   -0.29824691035517414     0.5922880039191549
                   86.0      5.091299999999986     0.0955078932258715   -0.02274001393118663     0.5661422271303919
                   87.0      5.362799999999989   -0.06512685769114057   0.011082584990700362     0.4999221566146638
                   88.0      5.634299999999989   0.038550178641656885    0.22673711147982534    0.45830293116672705
                   89.0      5.905799999999989   0.016602495780645654     0.2823474914734243     0.4054711444949677
                   90.0      6.177299999999988    -0.1025019407702672    0.20128488268929434    0.36392820556466043
                   91.0      6.448799999999988     0.4454977583249473     0.6609951107727676     0.2378665515276505
                   92.0     6.7202999999999875    0.08147226196129509    0.08341785803318746    0.36411840290283176
                   93.0      6.991799999999987   -0.45029463127744407    0.10849959420141975    0.29968639494827565
                   94.0      7.263299999999987    0.19535215062863642    0.12078331482302307     0.2103253023177609
                   95.0      7.534799999999986   -0.17942269633067554    0.31146429258069563    0.20448938371910788
                   96.0      7.806299999999986   -0.14332415987911418     0.3901300683097668    0.25913232648968887
                   97.0       8.07779999999999   -0.19052917549284132    0.34995550146818477    0.22186662210565322
                   98.0      8.349299999999989                    nan                    nan                    nan
                   99.0      8.620799999999988                    nan                    nan                    nan
                  100.0      8.892299999999988    -0.6655717724536743    0.22937856386525102    0.03875536730141894
                  101.0      9.163799999999988    -0.4921434781266356    0.30920712025212627                    0.0
#------------------------------------------------------------------------------------------------------------------
# experiment: sac6_and_rvs167_raw_trajectories
# path: /Users/andreapicco/Google Drive/RESEARCH/EvoCellBio/Protein_tracking/Data/Rvs167/24_degree/Sc/sac6_and_rvs167_raw_trajectories
# file: 05.W2data.txt
# protein: Rvs167-GFP
# date: 23/01/19
# notes: the trajectory of the target protein
# t_unit: s
# delta_t: 0.2715
# coord_unit: pxl
# intensity_normalisation: Absolute
# aligned_to: ../../../Fimbrin/24_degree/Sc/fim1_sc_24deg.txt
# alignment_angle: -0.4695451175986421 rad
# alignment_translation: [-66.78502886  -3.74453331] pxl
# alignment_lag: -18.257700000000014 s
