#                 frames                   t (s)                 x (pxl)                 y (pxl)                       f
                    42.0     -0.8433000000000082     0.12072911169027378     0.19301980388200946                     0.0
                    43.0     -0.5718000000000032                     nan                     nan                     nan
                    44.0     -0.3003000000000071     -0.8601371796853101      0.4714732558701087     0.09955405712648226
                    45.0   -0.028800000000007486     -0.9061366396005042     0.20614514044976318      0.1770556068349804
                    46.0     0.24269999999999214      -0.402668789126281      0.1998210844830055     0.21375795614929627
                    47.0      0.5141999999999918     -0.3931441686007773      0.2377721630031715      0.2617840617404787
                    48.0      0.7856999999999914     -0.4806128751064094     0.18197364145258632      0.3811707019747582
                    49.0      1.0571999999999928     -0.3524696526784865     0.08405510030847552      0.3404161903131874
                    50.0      1.3286999999999924     -0.3653719545959788     0.03338638370513536      0.3837785429123555
                    51.0       1.600199999999992     -0.5374669846821618    -0.22432451691923916      0.5656814951099239
                    52.0      1.8716999999999917      -0.571521566088137     -0.0666696416338084      0.5831460360978997
                    53.0       2.143199999999993     -0.5409106070584926    0.054535259245994894       0.661883666936258
                    54.0      2.4146999999999927    -0.17314641104321993      -0.150125490218187      0.5705083389405408
                    55.0      2.6861999999999924       -0.22176222834171     -0.2523702565067367      0.6253181480712782
                    56.0       2.957699999999992    -0.29184232334484506    -0.03886013929130172      0.6329928620115597
                    57.0      3.2291999999999916     -0.2777132578756252    -0.23412066489225936      0.8049154841621059
                    58.0       3.500699999999993   -0.045008037920730715     0.06988837660280467      0.8662915423809282
                    59.0       3.772199999999991   -0.045610584610464855    -0.06826749619125394      0.9027865728326138
                    60.0       4.043699999999994     -0.1642871218974662    -0.10983105381771452      0.7925332499143658
                    61.0       4.315199999999994    0.038463800992047936   -0.061523807099916894                     1.0
                    62.0       4.586699999999993    -0.03379548891012263    -0.05791268264431437      0.8317303362089996
                    63.0       4.858199999999993   -0.024658518677007635    -0.07203753453589457      0.8783183399564031
                    64.0       5.129699999999993  -0.0016524262795840627      0.0907509786510019      0.8978127629638213
                    65.0       5.401199999999992    -0.06958818936927713    -0.12794177301998388      0.8713326157029296
                    66.0       5.672699999999992    -0.05081342502867159    0.030403216016480883      0.9526815427932622
                    67.0      5.9441999999999915     -0.0710203371468836     0.12905987756371928      0.9287758350976552
                    68.0       6.215699999999991    -0.04897444026787667     0.20597800795442822      0.8306025215962908
                    69.0       6.487199999999994    -0.34370393601191296     0.07475472847067977      0.9341610577316228
                    70.0       6.758699999999994     -0.5434444818963371      0.1606200761016794      0.9029462083568391
                    71.0       7.030199999999994    -0.48853980476879855    0.021072523351662653      0.7208942169324686
                    72.0       7.301699999999993     -0.1678158262046736     0.09738571250662176      0.8800565934424123
                    73.0       7.573199999999993     0.09292355719573209     0.15847717826886765      0.8806094437427596
                    74.0      7.8446999999999925    -0.21345004670562417    -0.06584808208651793      0.7951873920646171
                    75.0       8.116199999999992     0.07234143981324337      0.4765496236740603      0.7554975779397988
                    76.0       8.387699999999992       0.579851396164841       0.554527981581856      0.9413156316809942
                    77.0       8.659199999999991      0.3079513283391364     0.35704252484802623      0.8328641400332955
                    78.0       8.930699999999995      0.1745661866652526     0.11317010264812666      0.7049497839161565
                    79.0       9.202199999999994    -0.06409313199521449      0.5742909913156495      0.6730360396200168
                    80.0       9.473699999999994    -0.16671365669525784      0.4227192906051158      0.7375649570308622
                    81.0       9.745199999999993   0.0002770984451743175     0.18053456446898508      0.6027823573490736
                    82.0      10.016699999999993     0.18639064983985776      0.1372267449872595      0.5201888260200838
                    83.0      10.288199999999993      0.2637905486155532      0.8617688542931887      0.5599237895860971
                    84.0      10.559699999999992      0.6318434774908965     0.37003885747860465     0.39257485189946695
                    85.0      10.831200000000003                     nan                     nan                     nan
                    86.0      11.102699999999999                     nan                     nan                     nan
                    87.0      11.374199999999995       3.180963414780898      0.7208657089532409     0.21458976549702738
                    88.0      11.645699999999994      2.2515158532813686      0.3548918200696676      0.1966467786449593
                    89.0      11.917199999999998                     nan                     nan                     nan
                    90.0      12.188699999999994                     nan                     nan                     nan
                    91.0      12.460199999999993      1.2494511298469675     0.19652798065752108     0.17554217913777928
#-----------------------------------------------------------------------------------------------------------------------
# experiment: sac6_and_rvs167_raw_trajectories
# path: /Users/andreapicco/Google Drive/RESEARCH/EvoCellBio/Protein_tracking/Data/Rvs167/24_degree/Sc/sac6_and_rvs167_raw_trajectories
# file: 06.W1data.txt
# protein: Sac6-mCherry
# date: 23/01/19
# notes: the trajectory of the reference protein
# t_unit: s
# delta_t: 0.2715
# coord_unit: pxl
# intensity_normalisation: Absolute
# aligned_to: ../../../Fimbrin/24_degree/Sc/fim1_sc_24deg.txt
# alignment_angle: -2.489170507927705 rad
# alignment_translation: [40.81168816 84.381921  ] pxl
# alignment_lag: -12.246300000000009 s
