#                frames                  t (s)                x (pxl)                y (pxl)                      f
                   48.0     0.7856999999999914   -0.34436638079413484     0.4114934184231629                    0.0
                   49.0     1.0571999999999964                    nan                    nan                    nan
                   50.0     1.3286999999999942                    nan                    nan                    nan
                   51.0      1.600199999999992    -0.6385977701545684     0.4553993512799934    0.05900466077525509
                   52.0     1.8716999999999953                    nan                    nan                    nan
                   53.0      2.143199999999993    -1.1621786510667462     0.8517763015977664      0.207416301404081
                   54.0     2.4146999999999945                    nan                    nan                    nan
                   55.0     2.6861999999999924    0.12094975227209659     0.2771107183599213   0.059705063013300946
                   56.0      2.957699999999992   -0.07874951480533099  -0.032933519871860994    0.18350468173799817
                   57.0     3.2291999999999916    -0.2317776665782887    0.04641508590640342     0.2923657917628047
                   58.0      3.500699999999993    -0.5537917835662185   -0.07548902663081947     0.3177659423422395
                   59.0      3.772199999999991    -0.3256079005026109      0.348525255656952     0.4632586531208593
                   60.0      4.043699999999994  0.0018842265304996886   -0.07209235104934919    0.44807070539454186
                   61.0      4.315199999999994   -0.06154144747688406    -0.1426063722274904     0.5288128499148631
                   62.0      4.586699999999993   -0.18921713890116365   -0.10395441862442567     0.6898768271496765
                   63.0      4.858199999999993    0.08735234701995154   -0.06103065673977426     0.7467778150057305
                   64.0      5.129699999999993   -0.13674125011849725   -0.10296804624540812                    1.0
                   65.0      5.401199999999992    0.08686698045331553   -0.23014471607339715     0.9512205777331982
                   66.0      5.672699999999992   -0.20985570281085586  -0.043137513534276195     0.9804056484551517
                   67.0     5.9441999999999915   -0.14620659775794564   -0.11543638198297401     0.8279022213109009
                   68.0      6.215699999999991  -0.055442543214191176    0.22750556316340464     0.8001390939655839
                   69.0      6.487199999999994   -0.04277281140608835    0.43369199341745457     0.6630970109946945
                   70.0      6.758699999999994  -0.021408472841550008     0.4927791341478951     0.6400601894961507
                   71.0      7.030199999999994   -0.26179106478083014     0.7687850835068843     0.3801834786104274
                   72.0      7.301699999999993    0.05474174548481159     0.5703509507944631     0.3612095537965642
                   73.0      7.573199999999993      0.772948831834853    0.43929860284680444    0.43464891280872925
                   74.0     7.8446999999999925     0.5230353483734405      0.719711303253149    0.41703633318994116
                   75.0      8.116199999999992    0.47741231143272245     0.5633396814885145    0.17495751961778055
                   76.0      8.387699999999992     0.3156398928604176     0.7027402699746119     0.3428687390540131
                   77.0      8.659199999999991     0.7450491011851739      0.513463662812228    0.22210501876253583
                   78.0      8.930699999999995     0.2979424344448134     0.5395905003038308     0.2695967296711598
                   79.0      9.202199999999994                    nan                    nan                    nan
                   80.0      9.473699999999994    -0.2390387837677892     1.0306666755932667    0.21049941004851735
                   81.0      9.745199999999993    0.13837159566642754     0.4596984027686659     0.2192738153495899
#------------------------------------------------------------------------------------------------------------------
# experiment: sac6_and_rvs167_raw_trajectories
# path: /Users/andreapicco/Google Drive/RESEARCH/EvoCellBio/Protein_tracking/Data/Rvs167/24_degree/Sc/sac6_and_rvs167_raw_trajectories
# file: 06.W2data.txt
# protein: Rvs167-GFP
# date: 23/01/19
# notes: the trajectory of the target protein
# t_unit: s
# delta_t: 0.2715
# coord_unit: pxl
# intensity_normalisation: Absolute
# aligned_to: ../../../Fimbrin/24_degree/Sc/fim1_sc_24deg.txt
# alignment_angle: -2.489170507927705 rad
# alignment_translation: [40.81168816 84.381921  ] pxl
# alignment_lag: -12.246300000000009 s
