#                 frames                   t (s)                 x (pxl)                 y (pxl)                       f
                    25.0       -1.68660000000001    -0.11931390494905525    0.053758031182070454                     0.0
                    26.0     -1.4151000000000078                     nan                     nan                     nan
                    27.0       -1.14360000000001     -0.6923417525976658    -0.13830423644017742     0.05218770509503932
                    28.0     -0.8721000000000103     -0.7445531749068861    -0.30459652508113777      0.1435326336281097
                    29.0     -0.6006000000000098     -0.6782072134056909    -0.16271267807070444      0.2745686275629543
                    30.0     -0.3291000000000093     -0.9806380566708084    -0.33561188289810673     0.23252265074108647
                    31.0   -0.057600000000009643     -0.7689870855457235    0.021593024009405326      0.4183916593749861
                    32.0        0.21389999999999    -0.43255216451888767     -0.2154276241241888      0.5643580962823321
                    33.0      0.4853999999999896     -0.7919352713337302      0.1632132237304802     0.42049191718004536
                    34.0      0.7568999999999892    -0.46852424460958186    -0.12247196364054957      0.4826227461092882
                    35.0      1.0283999999999907    -0.43169255597237477    -0.07335357539203358      0.5246911426015828
                    36.0      1.2998999999999903    -0.43888642767864905     -0.2651261910071838      0.5803547426380464
                    37.0        1.57139999999999     -0.4639072333581522      0.0412531494976065      0.6107107648893578
                    38.0      1.8428999999999895    -0.24405454599684173      -0.092599989120842      0.7493172047070309
                    39.0       2.114399999999991     -0.2427636903581556    -0.15660210183378354      0.7310902241565179
                    40.0      2.3858999999999906     -0.3677880414957775    -0.08594893765399547      0.7762358261680278
                    41.0        2.65739999999999    -0.18902623932069584    0.005325798955411187      0.7364510634643763
                    42.0        2.92889999999999    -0.08823753379300125      0.0428751647962855      0.6145675827217099
                    43.0      3.2003999999999895    -0.14958874127847732    0.046226356386455336      0.8037709885657566
                    44.0       3.471899999999991    -0.19378214457425624     0.10734984885159804      0.7887603846961637
                    45.0      3.7433999999999905     -0.1509845832622707     0.04344362227118381      0.6420955539043961
                    46.0       4.014899999999992                     nan                     nan                     nan
                    47.0        4.28639999999999    -0.21835233498601792    -0.02456310778318027      0.8755704061196394
                    48.0       4.557899999999989    -0.13089120088798634    -0.12297432336497138      0.8861935227880087
                    49.0       4.829399999999991    -0.10780988788147194    0.010400390456254627      0.7107289332826564
                    50.0        5.10089999999999     -0.1178983454947291  -0.0075515292178494065      0.8249279662334381
                    51.0        5.37239999999999     0.07500195085184647     -0.2007337888443601      0.9588368505777611
                    52.0        5.64389999999999   0.0016767133656800937    -0.09290102418724189                     1.0
                    53.0       5.915399999999991     0.03709945395994385    0.019854123268615353      0.9481875071251192
                    54.0       6.186899999999991     -0.1334385347711189   -0.031178549496630126       0.902940805090365
                    55.0        6.45839999999999     0.09366127204739261     0.10917961874802984      0.9656369904257432
                    56.0        6.72989999999999      0.2935504410193355    -0.18143236093055748      0.9328681040213486
                    57.0        7.00139999999999      0.4001547895835147      -0.565085110046482       0.752058115169847
                    58.0       7.272899999999991      0.2188119015053056      -0.820511791114555      0.8630058728961203
                    59.0       7.544399999999989      0.3821515574821577     -0.7921583001590591      0.7930539630891852
                    60.0       7.815899999999992     0.07269833014173077     -1.1776055922206297      0.8928453967023203
                    61.0       8.087399999999992      0.2544821395432324     -1.3392604174764244      0.8205889139805892
                    62.0       8.358899999999991      0.1957099992593827      -1.650750303038464      0.6735759437782347
                    63.0       8.630399999999991                     nan                     nan                     nan
                    64.0        8.90189999999999      0.4377569647239321     -1.5565671807213448      0.5010823836170585
                    65.0        9.17339999999999      0.4697995939540833      -2.021341536292965        0.57336234354084
                    66.0        9.44489999999999     0.17891283011944115     -1.8704206433529578     0.49381481479131406
                    67.0        9.71639999999999     0.43466016441005184      -2.161162593152511      0.4682716189603575
                    68.0        9.98789999999999      0.3524590949961288     -1.9317201637454673      0.3445706643688619
                    69.0      10.259399999999992       0.771056332670164      -1.771403517283943     0.35582808850524456
                    70.0      10.530899999999992      0.3670569153425065     -1.9275131798930119     0.34221215734124705
                    71.0      10.802399999999992     0.39594594801390404      -2.393939399183168      0.2964878740251409
                    72.0      11.073899999999991      0.2241418012263745     -2.7038678534296423      0.2929451430850862
                    73.0       11.34539999999999      0.7335538321166633     -2.6587620880084586      0.1954773179559775
                    74.0       11.61689999999999      0.3471835319616128      -2.128011987901928     0.19918819642423177
                    75.0       11.88839999999999     0.17448578445036222      -2.209002569172455     0.09488871700474893
                    76.0       12.15989999999999     0.29119796710394485     -1.7613633123001051     0.06846396281211195
#-----------------------------------------------------------------------------------------------------------------------
# experiment: sac6_and_rvs167_raw_trajectories
# path: /Users/andreapicco/Google Drive/RESEARCH/EvoCellBio/Protein_tracking/Data/Rvs167/24_degree/Sc/sac6_and_rvs167_raw_trajectories
# file: 07.W1data.txt
# protein: Sac6-mCherry
# date: 23/01/19
# notes: the trajectory of the reference protein
# t_unit: s
# delta_t: 0.2715
# coord_unit: pxl
# intensity_normalisation: Absolute
# aligned_to: ../../../Fimbrin/24_degree/Sc/fim1_sc_24deg.txt
# alignment_angle: 0.47829481220113607 rad
# alignment_translation: [  3.3814301  -68.05096701] pxl
# alignment_lag: -8.47410000000001 s
