#               frames                 t (s)               x (pxl)               y (pxl)                     f
                  39.0     2.114399999999991   -0.2929613787634926  -0.23197686864443767                   0.0
                  40.0    2.3858999999999906   -0.2573181223444143   0.09518305269197924   0.05863918644802587
                  41.0      2.65739999999999    -0.137591924951038    0.3001174774324795   0.15274277383913618
                  42.0      2.92889999999999   -0.4208336551606342   0.49647271366994516     0.145381649100494
                  43.0    3.2003999999999895   -0.5531480220196192   0.21208975112348583   0.25529273921038226
                  44.0     3.471899999999991   -0.6213237692499289    0.2050137054347232   0.24204944747944956
                  45.0    3.7433999999999905   -0.5950921583805657   0.23257401305635028   0.36070352819174684
                  46.0      4.01489999999999   -0.5668034790033216   0.22321170201199436   0.37014299396880823
                  47.0      4.28639999999999                   nan                   nan                   nan
                  48.0     4.557899999999989   -0.5211885018247768   0.17777034434080008    0.5995376537921051
                  49.0     4.829399999999991   -0.5380320811720933   0.22144380726476243    0.5712621575253187
                  50.0      5.10089999999999   -0.5332530213158284    0.2844600640632251    0.7665765402200557
                  51.0      5.37239999999999   -0.4418616985463961   0.34869360392717397    0.7241005863692849
                  52.0      5.64389999999999  -0.42882843040924623   0.26844720825943114    0.7525470710889111
                  53.0     5.915399999999991    -0.492539721387657    0.1262070225949543     0.843424252115392
                  54.0     6.186899999999991  -0.24967549684377044    0.2819989800950111                   1.0
                  55.0      6.45839999999999  -0.13218390660679358   0.20850494224438876    0.8896406040305651
                  56.0      6.72989999999999   0.25055369972317454   0.07887513330445017    0.7678875885373283
                  57.0      7.00139999999999    0.4038614925779891   -0.5394232992586439    0.6468484960200538
                  58.0     7.272899999999989                   nan                   nan                   nan
                  59.0     7.544399999999989    0.6765660920192689   -0.6115619660370868   0.27629332340382384
                  60.0     7.815899999999992    0.4405360641808942   -1.0230131885685267   0.18401395495675615
                  61.0     8.087399999999992                   nan                   nan                   nan
                  62.0     8.358899999999991    0.6732061752536653    -1.464599382041996    0.4055421196081675
                  63.0     8.630399999999991    0.5853422352401383    -1.628604667765643   0.27974388269822653
                  64.0      8.90189999999999    0.8490805767592855   -1.7350320408316406   0.20258128930630412
                  65.0      9.17339999999999    0.5835913657175356    -2.126554994823394   0.22530797421994986
                  66.0      9.44489999999999    0.2755909461194763    -2.038130180051624   0.20337978280155858
                  67.0      9.71639999999999                   nan                   nan                   nan
                  68.0      9.98789999999999    0.6345542419352954   -2.2307727181943022   0.08579966557696594
#-------------------------------------------------------------------------------------------------------------
# experiment: sac6_and_rvs167_raw_trajectories
# path: /Users/andreapicco/Google Drive/RESEARCH/EvoCellBio/Protein_tracking/Data/Rvs167/24_degree/Sc/sac6_and_rvs167_raw_trajectories
# file: 07.W2data.txt
# protein: Rvs167-GFP
# date: 23/01/19
# notes: the trajectory of the target protein
# t_unit: s
# delta_t: 0.2715
# coord_unit: pxl
# intensity_normalisation: Absolute
# aligned_to: ../../../Fimbrin/24_degree/Sc/fim1_sc_24deg.txt
# alignment_angle: 0.47829481220113607 rad
# alignment_translation: [  3.3814301  -68.05096701] pxl
# alignment_lag: -8.47410000000001 s
