#                 frames                   t (s)                 x (pxl)                 y (pxl)                       f
                    54.0       2.433899999999994      -1.189451083953898    -0.11718356137260955     0.01915529596051875
                    55.0      2.7053999999999974                     nan                     nan                     nan
                    56.0      2.9768999999999934     -0.4693536656355519     0.44173504838310507     0.14264345330292566
                    57.0       3.248399999999993     -0.8655491728409146      0.3758223066688977     0.24692288621931843
                    58.0      3.5198999999999945     -0.9926700420202792      0.5386209831134146      0.3258117170666684
                    59.0      3.7913999999999923     -0.7780813142484106     0.30320202516130124     0.46851829763296593
                    60.0      4.0628999999999955     -0.7709086790788149      0.2859075688031645      0.5247587338951036
                    61.0       4.334399999999995     -0.8600749935868066     0.21600357908825885      0.6919971475324983
                    62.0       4.605899999999995     -0.6226264816353932     0.16749663080183552      0.7472350343720292
                    63.0       4.877399999999994     -0.7451490692565841     0.20496939557318328        0.82156338836522
                    64.0       5.148899999999994     -0.6430889125818879     0.17796023939351713      0.9691756889592119
                    65.0       5.420399999999994     -0.7358758157271836     0.18402192997518085                     1.0
                    66.0       5.691899999999993    -0.22174387993649702  -0.0031854107172506474      0.9667790649576137
                    67.0       5.963399999999993     0.09710134566032025     -0.2454631532754874      0.7058919516482597
                    68.0                  6.2349                     nan                     nan                     nan
                    69.0       6.506399999999996      0.8064220325536269     0.39667488549047647     0.42284427627144866
                    70.0       6.777899999999995      1.0806914428551977      0.4570171910631693      0.3980424082489467
                    71.0       7.049399999999995      1.0731961739813443     0.08259646924143738      0.3007454291862692
                    72.0       7.320899999999995      1.2551236250882596      0.3585157981470708      0.2609512614988182
                    73.0       7.592399999999994      1.4632467762478427     0.07204730166551343     0.18344153164777305
                    74.0       7.863899999999994      1.3269143590674162      0.3510843994405981     0.29153565490792355
                    75.0       8.135399999999994      0.8924770730214959      0.6213422720401809     0.18483645699850798
                    76.0       8.406899999999993       1.549789753775869      0.9347433682738995      0.1690604264033948
                    77.0       8.678399999999993       0.955603902046164      0.7173832960314428     0.12328550351309177
                    78.0       8.949899999999996      1.0863070512681219      0.7157231630664285      0.2242496490991944
                    79.0                  9.2214                     nan                     nan                     nan
                    80.0       9.492899999999995      0.8770990475130844      0.6113781733121151     0.11811213069487465
                    81.0       9.764399999999995      1.1231150081547838      0.7743989152885504      0.0854074439464783
                    82.0      10.035899999999998                     nan                     nan                     nan
                    83.0      10.307399999999994      1.8773702226637283      0.8673540036218128     0.05066549918096206
                    84.0                 10.5789                     nan                     nan                     nan
                    85.0      10.850399999999997                     nan                     nan                     nan
                    86.0      11.121899999999993      2.0495692425324847     0.27046828717331906     0.11830525588066192
                    87.0                 11.3934                     nan                     nan                     nan
                    88.0      11.664899999999996      1.8058167727951968     0.18226339552905202                     0.0
#-----------------------------------------------------------------------------------------------------------------------
# experiment: sac6_and_rvs167_raw_trajectories
# path: /Users/andreapicco/Google Drive/RESEARCH/EvoCellBio/Protein_tracking/Data/Rvs167/24_degree/Sc/sac6_and_rvs167_raw_trajectories
# file: 08.W2data.txt
# protein: Rvs167-GFP
# date: 23/01/19
# notes: the trajectory of the target protein
# t_unit: s
# delta_t: 0.2715
# coord_unit: pxl
# intensity_normalisation: Absolute
# aligned_to: ../../../Fimbrin/24_degree/Sc/fim1_sc_24deg.txt
# alignment_angle: 2.856576754649608 rad
# alignment_translation: [69.25925765 27.37583083] pxl
# alignment_lag: -12.227100000000007 s
