#                frames                  t (s)                x (pxl)                y (pxl)                      f
                   44.0    -0.2811000000000057    -1.0546611051684636    -0.9773660083709323   0.007034521361012042
                   45.0  -0.009600000000002495                    nan                    nan                    nan
                   46.0     0.2618999999999936    -0.8471407173464769    0.39694031117475603                    0.0
                   47.0     0.5333999999999968                    nan                    nan                    nan
                   48.0     0.8048999999999928    -0.7679784662957161  -0.010959792877173413     0.1973121400916878
                   49.0     1.0763999999999943    -0.5935496413305259   -0.13335831952786137    0.19926037680244815
                   50.0     1.3478999999999939    -0.6100635005263939   0.035044782624265025    0.22106819311879727
                   51.0     1.6193999999999935    -1.1021489847850034  -0.013766388965375853    0.21385181632901729
                   52.0     1.8908999999999985                    nan                    nan                    nan
                   53.0     2.1623999999999945    -0.6311432366881178   -0.23069694072258073    0.31459739024958194
                   54.0      2.433899999999994    -0.6046890654620967   -0.08861723610315053      0.473454358037835
                   55.0      2.705399999999994    -0.4375148658948831   -0.11890495037909332      0.554522541155417
                   56.0     2.9768999999999934    -0.3521098945889918    -0.1080130891405986     0.5093162152534866
                   57.0      3.248399999999993   -0.22082590005459224   -0.16496517304535274     0.5882284697590757
                   58.0     3.5198999999999945   -0.05352000692995773   0.038611846330038446     0.5474270123820044
                   59.0     3.7913999999999923   -0.29566908469956843  -0.024588105658271076     0.5914485276627778
                   60.0     4.0628999999999955   -0.30202901787606606   -0.19100665937146388     0.6635367863862126
                   61.0      4.334399999999995    -0.2858078229546095     -0.151668608894596     0.6704712955957483
                   62.0      4.605899999999995    -0.0987918432990682    0.18600010898947517     0.7598189846733046
                   63.0      4.877399999999994   -0.01879282755275824   -0.06383341943419296     0.8262550566560503
                   64.0      5.148899999999994    0.38411234298290253    0.09120951100971553     0.7862606973413936
                   65.0      5.420399999999994   0.009036764647717632    0.21691170820822236     0.8252807716137511
                   66.0      5.691899999999993      0.381167190146698    0.01617969336518854      0.894112467998195
                   67.0      5.963399999999993     0.4175640045260707   -0.22953595927630488                    1.0
                   68.0                 6.2349                    nan                    nan                    nan
                   69.0      6.506399999999996     0.8596089945315555    0.22741681589095109     0.8998760016008611
                   70.0      6.777899999999995     0.8207851751774058    0.23256469426528525     0.9049779548215109
                   71.0      7.049399999999995     0.9841588119176805    0.31994047129909475     0.9212942705872096
                   72.0      7.320899999999995     1.0370467131536287    0.06705054466726068       0.91521436521204
                   73.0      7.592399999999994     1.0783898946258716    0.24478216466143365     0.7555332972956212
                   74.0      7.863899999999994     1.0711253127000617     0.4401869462980237     0.8025556771814443
                   75.0      8.135399999999994        1.1295051898162     0.6397250473135934     0.7942064960892747
                   76.0      8.406899999999993     1.0932039065509116     0.5908981633940584     0.8726271908703574
                   77.0                 8.6784                    nan                    nan                    nan
                   78.0      8.949899999999996     1.2991593273320632     0.5994324156081738     0.8084150557626086
                   79.0      9.221399999999996     1.3598252355174623     0.3996458655252333     0.8583921279768826
                   80.0      9.492899999999995     1.2587311733821593     0.5727471503817689     0.7376862955515762
                   81.0      9.764399999999995        1.2342753032394     0.1847818607338958     0.6777291774283907
                   82.0     10.035899999999994      1.796658036279581     0.3943705838901259     0.7970173376065192
                   83.0     10.307399999999998                    nan                    nan                    nan
                   84.0     10.578899999999994     1.6395589228553007      0.725920213389692     0.6657532223498488
                   85.0     10.850399999999993     1.9316742287643933     0.7019618121150231     0.6267958223590833
                   86.0     11.121899999999993     1.5590661099858778     0.3873080259224331     0.6135532133820927
                   87.0     11.393399999999996     1.6085361074686375    0.12114150533981416     0.5199053351648891
                   88.0                11.6649                    nan                    nan                    nan
                   89.0     11.936399999999995     1.9039199225810535     0.3881880478368771    0.30385241806879537
                   90.0     12.207899999999995      2.222024624370576     0.7435228960918643    0.23735883909895056
                   91.0     12.479399999999995      1.817529298908397    0.19352341369278037    0.23361638439070345
                   92.0     12.750899999999994     1.4398345678913955    0.20366500469163995      0.130027965064422
                   93.0     13.022399999999994     1.9819211783132573     0.3623550474458952    0.08596977866144072
                   94.0     13.293899999999994      2.839587892391563    0.10803456950100099    0.15148857252822887
                   95.0     13.565399999999993     1.2268573600054822    0.21449426607541255    0.04751693997487361
                   96.0                13.8369                    nan                    nan                    nan
                   97.0     14.108399999999996                    nan                    nan                    nan
                   98.0     14.379899999999996      2.455185475622713    -1.1658427624930532   0.010496441984367786
#------------------------------------------------------------------------------------------------------------------
# experiment: sac6_and_rvs167_raw_trajectories
# path: /Users/andreapicco/Google Drive/RESEARCH/EvoCellBio/Protein_tracking/Data/Rvs167/24_degree/Sc/sac6_and_rvs167_raw_trajectories
# file: 08.W1data.txt
# protein: Sac6-mCherry
# date: 23/01/19
# notes: the trajectory of the reference protein
# t_unit: s
# delta_t: 0.2715
# coord_unit: pxl
# intensity_normalisation: Absolute
# aligned_to: ../../../Fimbrin/24_degree/Sc/fim1_sc_24deg.txt
# alignment_angle: 2.856576754649608 rad
# alignment_translation: [69.25925765 27.37583083] pxl
# alignment_lag: -12.227100000000007 s
