#                frames                  t (s)                x (pxl)                y (pxl)                      f
                  132.0     1.6097999999999857    0.15323615349836928   0.029290116879181483   0.008317713611697678
                  133.0     1.8812999999999889                    nan                    nan                    nan
                  134.0      2.152799999999985    -0.9774642201346637    0.04380414313325076                    0.0
                  135.0      2.424299999999988     -0.706015547270681   -0.13455660702602756    0.11795765219483924
                  136.0      2.695799999999984    -0.8944962926013318   -0.15176630939427582    0.20493165171353717
                  137.0     2.9672999999999874    -0.6102804082656093   -0.06653632515603647    0.28456432557261957
                  138.0     3.2387999999999906    -0.6846105073713602    -0.0424769328959087     0.3666624863433356
                  139.0     3.5102999999999867    -0.6229406543138225   -0.25999936138516233     0.5727467774791294
                  140.0       3.78179999999999     -0.598024645522429    0.07046408107542845     0.5496921813266087
                  141.0      4.053299999999986    -0.5749231422975356    0.05034903325666562     0.7297635631720293
                  142.0      4.324799999999989    -0.6791227234012922   -0.08205409712098088     0.8720156728230403
                  143.0      4.596299999999985    -0.5779596397716205  -0.021112436243271304                    1.0
                  144.0      4.867799999999988    -0.6592205795988377     0.1114817465077067     0.9611830992917175
                  145.0      5.139299999999984   -0.30086563727797966     0.1794300048460329     0.9148976555165017
                  146.0      5.410799999999995                    nan                    nan                    nan
                  147.0      5.682299999999991      0.313593142291154  0.0004075990991481149     0.7039804586831528
                  148.0      5.953799999999994                    nan                    nan                    nan
                  149.0       6.22529999999999     0.4055365353533773   0.039925838801877944     0.2709330820620066
                  150.0      6.496799999999986      0.739804163950879    0.31707848095565794     0.3078609285514954
                  151.0      6.768299999999989     0.9763364208805285    0.32054850930839507    0.41972366932964567
                  152.0      7.039799999999985     0.6001726705451063     0.1021882145165236     0.4160565089328991
                  153.0      7.311299999999989    0.42411970757589756     0.1432949862064561     0.3935643357409736
                  154.0      7.582799999999985     0.8131559829528925    -0.1963594049410773     0.3308859234955638
                  155.0      7.854299999999988     1.1707608533387912     0.2214517577356645    0.35992945421924555
                  156.0      8.125799999999991     1.3360525238501708    -0.3294904503311855     0.2205771331794523
                  157.0      8.397299999999987     1.6931478246651608    -0.4174810811554792    0.12692772220960594
#------------------------------------------------------------------------------------------------------------------
# experiment: sac6_and_rvs167_raw_trajectories
# path: /Users/andreapicco/Google Drive/RESEARCH/EvoCellBio/Protein_tracking/Data/Rvs167/24_degree/Sc/sac6_and_rvs167_raw_trajectories
# file: 09.W2data.txt
# protein: Rvs167-GFP
# date: 23/01/19
# notes: the trajectory of the target protein
# t_unit: s
# delta_t: 0.2715
# coord_unit: pxl
# intensity_normalisation: Absolute
# aligned_to: ../../../Fimbrin/24_degree/Sc/fim1_sc_24deg.txt
# alignment_angle: 2.877594805270765 rad
# alignment_translation: [101.19607286  55.35190888] pxl
# alignment_lag: -34.228200000000015 s
