#                frames                  t (s)                x (pxl)                y (pxl)                      f
                  140.0     -3.279500000000013    -0.5969416966513847    0.16436974415110317                    0.0
                  141.0    -3.0080000000000098                    nan                    nan                    nan
                  142.0    -2.7365000000000137    -1.2155779510003981    0.11466938102329838     0.2502741594213183
                  143.0    -2.4650000000000176    -0.9644008162818238   -0.03658962459147741    0.23471133773289074
                  144.0    -2.1935000000000144     -1.117201645137314     -0.152540677113989    0.31982414348094457
                  145.0    -1.9220000000000184    -0.9231974432506433  -0.056507632997294444    0.43122859653745493
                  146.0    -1.6505000000000152    -0.7616266859317591   -0.32780573555682135     0.3372893045987817
                  147.0     -1.379000000000012    -0.7859892423399657   -0.22219333066867275     0.5066373915502512
                  148.0     -1.107500000000016    -0.5047451835330037    0.08690152472008439     0.5300205370330152
                  149.0    -0.8360000000000127    -0.8448283622309276    -0.1014337761338231     0.5179907539400166
                  150.0    -0.5645000000000167    -0.6493125490808325   -0.16454228435775686     0.4767421692243802
                  151.0   -0.29300000000001347    -0.6969579284546512   -0.05661813126714943     0.5626956233329339
                  152.0   -0.02150000000001029                    nan                    nan                    nan
                  153.0     0.2499999999999858    -0.6602025489189884    -0.2509266008308577      0.780846338441471
                  154.0     0.5214999999999819    -0.7562981577497396   -0.11088492307582154     0.8305914532582575
                  155.0      0.792999999999985    -0.5347502348975723   -0.20678448670302796     0.9502021436640391
                  156.0     1.0644999999999882    -0.5386079515687641   -0.08630024650919577     0.9030304290694102
                  157.0     1.3359999999999843    -0.6080266318637655   -0.28317170652842716     0.7689685624098329
                  158.0     1.6074999999999875    -0.4190187209889018   -0.08395437069962863     0.7458259697096452
                  159.0     1.8789999999999836   -0.46509039959391885    0.06678785889949612     0.8648860901103862
                  160.0     2.1504999999999868    -0.1800596102457348    -0.1314279681390067     0.7481092915763433
                  161.0      2.421999999999983     -0.487123933719829   0.033893534907023515      0.737909167526575
                  162.0      2.693499999999986       -0.3933045468806    0.31576005645421024     0.6400940171178389
                  163.0      2.964999999999989                    nan                    nan                    nan
                  164.0     3.2364999999999853   -0.39033304667513846   -0.02232524883208864                    1.0
                  165.0     3.5079999999999885   -0.36294488014097226   0.046628499071105445     0.9285993460480415
                  166.0     3.7794999999999845   -0.21011986503670244   0.006181330772435878     0.7945340490457538
                  167.0      4.050999999999988    -0.4767485278284056  -0.019540245771387355     0.7307721251208928
                  168.0      4.322499999999991                    nan                    nan                    nan
                  169.0      4.593999999999987   -0.21556994570406118   0.037134568498395915     0.9065130845062782
                  170.0      4.865499999999983    0.09158529230282397  -0.043541240105766654      0.971468553297985
                  171.0      5.136999999999986     0.5256286951044444    -0.1955342330277139     0.9182710129394672
                  172.0      5.408499999999982    0.32372753717964997   0.023748352741479017     0.9641222599869604
                  173.0      5.679999999999993                    nan                    nan                    nan
                  174.0      5.951499999999989     0.1629722109105387    -0.1227814799381397       0.95159314763316
                  175.0      6.222999999999992                    nan                    nan                    nan
                  176.0      6.494499999999988    0.36677548057903664   -0.11333700952263737     0.5649369235014279
                  177.0      6.765999999999984     0.1960831785710866    0.09377778362169753     0.4931840162323817
                  178.0      7.037499999999987    0.04385279922520624   -0.09968828107493888     0.5589348957400931
                  179.0      7.308999999999983    0.12270011704845274   -0.15803019636814408     0.5137607125850913
                  180.0     7.5804999999999865    0.22064276242811331  -0.026396592052861045     0.5443936729901461
                  181.0     7.8519999999999825     0.3800449715871821     0.5895072917108459    0.45507290871836603
                  182.0      8.123499999999986     0.4403091963179122    0.30961721382738805    0.43644914935004653
                  183.0      8.394999999999989    0.08795237380832077    0.15439255145396746    0.35145769197537785
                  184.0      8.666499999999985   -0.00450384131897863    0.33593801590939254    0.20189667936393726
#------------------------------------------------------------------------------------------------------------------
# experiment: sac6_and_rvs167_raw_trajectories
# path: /Users/andreapicco/Google Drive/RESEARCH/EvoCellBio/Protein_tracking/Data/Rvs167/24_degree/Sc/sac6_and_rvs167_raw_trajectories
# file: 11.W1data.txt
# protein: Sac6-mCherry
# date: 23/01/19
# notes: the trajectory of the reference protein
# t_unit: s
# delta_t: 0.2715
# coord_unit: pxl
# intensity_normalisation: Absolute
# aligned_to: ../../../Fimbrin/24_degree/Sc/fim1_sc_24deg.txt
# alignment_angle: 2.302425847569542 rad
# alignment_translation: [111.04667307   6.04885714] pxl
# alignment_lag: -41.28950000000002 s
