#                 frames                   t (s)                 x (pxl)                 y (pxl)                       f
                   138.0      -3.822500000000012      0.6498352151734679     0.25684752802632094     0.01100107816550293
                   139.0      -3.551000000000009                     nan                     nan                     nan
                   140.0      -3.279500000000013     -0.2631591335702268  -0.0012716108903481071     0.15685188639067887
                   141.0     -3.0080000000000098                     nan                     nan                     nan
                   142.0     -2.7365000000000137     -1.4985401498492195      1.5001325382265671     0.06770625026804533
                   143.0     -2.4650000000000105                     nan                     nan                     nan
                   144.0     -2.1935000000000144                     nan                     nan                     nan
                   145.0     -1.9220000000000184     -0.7088091005050785   -0.015434178311777735     0.10941584574154546
                   146.0      -1.650500000000008                     nan                     nan                     nan
                   147.0      -1.379000000000012   -0.011628718618510447    -0.14570342783944934     0.16360538145216222
                   148.0     -1.1075000000000088                     nan                     nan                     nan
                   149.0     -0.8360000000000127      0.0350974811501743     0.09951258291266019                     0.0
                   150.0     -0.5645000000000095                     nan                     nan                     nan
                   151.0    -0.29300000000001347      0.3874895119567441      0.4123311338236002     0.22928994673004668
                   152.0    -0.02150000000001029                     nan                     nan                     nan
                   153.0      0.2499999999999858                     nan                     nan                     nan
                   154.0      0.5214999999999819     0.01092096788318031      0.3019850564201656    0.047851199197310255
                   155.0      0.7929999999999922                     nan                     nan                     nan
                   156.0      1.0644999999999882    -0.07010660159303939    -0.16939566717675714      0.2619436002748773
                   157.0      1.3359999999999843     -0.4596912892738487     -0.0601340999600799      0.3600407029918344
                   158.0      1.6074999999999875     -0.8741185482802649     0.06114098576419824       0.497978315009839
                   159.0      1.8789999999999836    -0.48983188613243556  -0.0006980467094868104       0.575155915099204
                   160.0      2.1504999999999868      -0.399748329084872     -0.2549583305598224      0.7664881526466918
                   161.0       2.421999999999983     -0.5618064610142568     0.02367815479083024      0.8690617366942306
                   162.0       2.693499999999986                     nan                     nan                     nan
                   163.0       2.964999999999982     -0.4342004688221266     0.05432565372084586      0.7240065866836087
                   164.0      3.2364999999999853     -0.7754302804222135    -0.14776213792519055      0.8692417634040107
                   165.0      3.5079999999999885     -0.4769063054552589    -0.12321688031949574                     1.0
                   166.0      3.7794999999999845     -0.6598387131874972    -0.10585739408607875      0.8831357361496625
                   167.0       4.050999999999988     -0.5486018980061687     0.02619230310902143      0.9458847689424501
                   168.0       4.322499999999984     -0.5143076615275817    -0.18593834667632247       0.796750592691813
                   169.0       4.593999999999987                     nan                     nan                     nan
                   170.0       4.865499999999983      0.3645885784098368    0.019152877838252813      0.5358841605419351
                   171.0       5.136999999999986      0.7726403710175447     0.14037594520838415      0.6127470879058953
                   172.0       5.408499999999982      0.5144331201575483      0.4358026850498016     0.45918929135303277
                   173.0      5.6799999999999855     0.01200636083945028     0.02571905466800306     0.41681120334640226
                   174.0       5.951499999999989      0.6698007108502111    -0.17624094920134947     0.38080361729014417
                   175.0       6.222999999999985     0.22531490821327793      0.3365575749679488     0.24441194100709238
                   176.0       6.494499999999988      0.4741635929135555       0.586789938288427       0.293335072095461
#-----------------------------------------------------------------------------------------------------------------------
# experiment: sac6_and_rvs167_raw_trajectories
# path: /Users/andreapicco/Google Drive/RESEARCH/EvoCellBio/Protein_tracking/Data/Rvs167/24_degree/Sc/sac6_and_rvs167_raw_trajectories
# file: 11.W2data.txt
# protein: Rvs167-GFP
# date: 23/01/19
# notes: the trajectory of the target protein
# t_unit: s
# delta_t: 0.2715
# coord_unit: pxl
# intensity_normalisation: Absolute
# aligned_to: ../../../Fimbrin/24_degree/Sc/fim1_sc_24deg.txt
# alignment_angle: 2.302425847569542 rad
# alignment_translation: [111.04667307   6.04885714] pxl
# alignment_lag: -41.28950000000002 s
