#                frames                  t (s)                x (pxl)                y (pxl)                      f
                   94.0     1.3094999999999928     0.6996709690957985    0.19769110463295902                    0.0
                   95.0      1.580999999999996                    nan                    nan                    nan
                   96.0      1.852499999999992    -0.8195820556023676    -0.8230015563196176    0.05225345679995682
                   97.0     2.1239999999999952    -0.8466273655986711   -0.12118336006135166   0.006211217181990954
                   98.0     2.3954999999999984                    nan                    nan                    nan
                   99.0     2.6669999999999945     -0.911098466234364   -0.21673745611078488       0.27414942182073
                  100.0     2.9384999999999977                    nan                    nan                    nan
                  101.0     3.2099999999999937    -1.0689251092964653    -0.6955987006824742     0.5537242990417227
                  102.0     3.4814999999999934     -1.076448242880744    -0.2129819364408334     0.5372767000153037
                  103.0      3.752999999999993    -0.9345426241775243   -0.48935101256631697      0.778396383705914
                  104.0      4.024499999999993    -1.1222393627866225    -0.3594685889343765     0.6892905800168907
                  105.0      4.295999999999992    -0.7087701466214327     0.2025562445282887     0.7969184654317022
                  106.0     4.5674999999999955     -0.590724704082831    0.16183115278049343                    1.0
                  107.0      4.838999999999999                    nan                    nan                    nan
                  108.0      5.110499999999995    -0.3348562261887267   -0.23909682728221782     0.5678757673035395
                  109.0      5.381999999999994    -0.5371095700162414    0.08322341772203146    0.45255642554161335
                  110.0      5.653499999999994    -0.4020446407649132     0.2470878313185665     0.4435872859328655
                  111.0      5.924999999999994    -0.7744349868173899  -0.029566842429986195      0.384860393041981
                  112.0      6.196499999999993    -0.4256528829576638      0.150889235561813     0.3674202999199621
                  113.0      6.467999999999993    -0.6415773886113172   -0.05595926626553904     0.3527730320828862
                  114.0                 6.7395                    nan                    nan                    nan
                  115.0      7.010999999999996   0.003771516860943791    0.21064039338680374    0.18475425255529193
                  116.0      7.282499999999995    -0.1429801759729301    -0.2598732020282313     0.2799495608951957
                  117.0      7.553999999999995   0.038364753797232254    -0.5595515529507793    0.09212415513455349
                  118.0      7.825499999999991   -0.27490492578912296    0.11351838901652656    0.15633079676065675
                  119.0      8.096999999999994    0.24203366868938048     -0.483482419160147    0.17196906711819634
#------------------------------------------------------------------------------------------------------------------
# experiment: sac6_and_rvs167_raw_trajectories
# path: /Users/andreapicco/Google Drive/RESEARCH/EvoCellBio/Protein_tracking/Data/Rvs167/24_degree/Sc/sac6_and_rvs167_raw_trajectories
# file: 12.W2data.txt
# protein: Rvs167-GFP
# date: 23/01/19
# notes: the trajectory of the target protein
# t_unit: s
# delta_t: 0.2715
# coord_unit: pxl
# intensity_normalisation: Absolute
# aligned_to: ../../../Fimbrin/24_degree/Sc/fim1_sc_24deg.txt
# alignment_angle: 2.926401054165391 rad
# alignment_translation: [61.57148371 53.56655538] pxl
# alignment_lag: -24.211500000000008 s
