#                 frames                   t (s)                 x (pxl)                 y (pxl)                       f
                   190.0    -0.28110000000000923     -0.3176216627501418      0.3677702132030376     0.23219020475197882
                   191.0   -0.009599999999984732                     nan                     nan                     nan
                   192.0     0.26190000000000424                     nan                     nan                     nan
                   193.0      0.5333999999999932      -0.613483515924365      0.6719192639763705     0.33578737485287014
                   194.0      0.8048999999999964     -0.6322019863545307      0.5129269981872575     0.35193121523975257
                   195.0      1.0763999999999925     -0.6752800447396865    -0.13336832757548223     0.31902281880904954
                   196.0      1.3479000000000028                     nan                     nan                     nan
                   197.0      1.6193999999999917      -0.605231482511364     -0.1961880046659097      0.4085913144859971
                   198.0       1.890899999999995     -0.5240977155942304     -0.3635016537978224     0.18800812846265705
                   199.0       2.162400000000005                     nan                     nan                     nan
                   200.0       2.433899999999994     -0.2536571735416331   -0.051941009784023606      0.4739723776981961
                   201.0      2.7053999999999903    -0.14501485004093695     -0.2133984437824985      0.5561186795594102
                   202.0      2.9768999999999934    -0.07414426504182359    -0.19628389246253874      0.7197261752015448
                   203.0      3.2483999999999966     -0.2839295306789893     -0.0814983405557328      0.8339772196443761
                   204.0      3.5198999999999927    -0.07577805060750364    -0.06835518396938411       0.700533592480603
                   205.0       3.791399999999996   -0.010507719274002625    -0.19735715512337393      0.8730998262314709
                   206.0       4.062899999999992     0.02761019290223743    -0.07247421018562505      0.7149704648109058
                   207.0       4.334400000000002                     nan                     nan                     nan
                   208.0       4.605899999999991    -0.01747757836076147    -0.04987160474873065       0.832095504657984
                   209.0       4.877399999999994    -0.12252573582327386     0.04325696056680428        0.76831537816214
                   210.0      5.1488999999999905  -0.0055799442562474155    -0.03311939964865118      0.7820341498277444
                   211.0       5.420399999999994    -0.18777737978258813    0.008077388389082785      0.9051030881741607
                   212.0       5.691899999999997     0.13380242170619994     0.07799535832125315      0.9827182567537525
                   213.0       5.963399999999993    -0.19932875589413612     0.07899915542100189      0.9913796065327136
                   214.0       6.234899999999996    -0.09887826978329173     0.21379743553649888      0.8122105327346733
                   215.0       6.506399999999992     -0.3042832142356531     0.16386019786238393      0.9026486674295157
                   216.0      6.7779000000000025                     nan                     nan                     nan
                   217.0      7.0493999999999915    -0.21476869368041207    0.041520947097286154                     1.0
                   218.0       7.320899999999995    -0.13868523498776142     0.27864499562329215       0.961002537698578
                   219.0       7.592400000000005                     nan                     nan                     nan
                   220.0       7.863899999999994     0.19416024286626765      0.4371675849950485      0.9289376137533114
                   221.0       8.135399999999997    -0.03394919023006082     0.44539465187635585      0.7632301969975837
                   222.0       8.406899999999993     0.35968258364911065      0.2604790053081629      0.8968335537768884
                   223.0       8.678399999999996      0.7722207775210208      0.5174991080023048      0.9997710997247508
                   224.0       8.949899999999992      0.6893223049176953     0.44295272544059827      0.9043312892341554
                   225.0       9.221399999999996       0.715725710358754      0.2732527723259466      0.8920143611031537
                   226.0       9.492899999999992      0.7206167322168398      0.5888812178915828      0.8310135754245745
                   227.0       9.764399999999995      0.7074443497776599     0.40927022796648416      0.7759036725752212
                   228.0      10.035899999999991      0.7987575357941665     0.49195671225812987      0.6260265528869989
                   229.0      10.307399999999994      0.6591051870270093      0.7893805468339998      0.6491420676611921
                   230.0      10.578899999999997      0.6012086424563705      0.7936919701233833       0.545320092916219
                   231.0      10.850399999999993      0.4538603586801244      0.7451401335237549     0.48143530029053944
                   232.0      11.121899999999997      0.5027420160050724      0.8870277926423924      0.6424222745906814
                   233.0      11.393399999999993     0.11097855065509066      0.8467431675605717      0.5898031980963505
                   234.0      11.664900000000003                     nan                     nan                     nan
                   235.0      11.936399999999992      0.4659376675870135      0.9578283545294504     0.22981155318393226
                   236.0      12.207899999999988     0.10158237212706211      0.8591898682105139      0.2061617860774479
                   237.0      12.479399999999991    -0.10998888038103871      0.5541283577947418      0.1401864012758346
                   238.0      12.750899999999994      0.5357861061222522      0.6024415594241859      0.1339307797376384
                   239.0      13.022399999999998      0.6898497700847699      0.4764077635738495      0.1128360038744671
                   240.0      13.293899999999987                     nan                     nan                     nan
                   241.0       13.56539999999999                     nan                     nan                     nan
                   242.0      13.836899999999993     -0.2629480241865707      1.5146460048035166                     0.0
#-----------------------------------------------------------------------------------------------------------------------
# experiment: sac6_and_rvs167_raw_trajectories
# path: /Users/andreapicco/Google Drive/RESEARCH/EvoCellBio/Protein_tracking/Data/Rvs167/24_degree/Sc/sac6_and_rvs167_raw_trajectories
# file: 13.W1data.txt
# protein: Sac6-mCherry
# date: 23/01/19
# notes: the trajectory of the reference protein
# t_unit: s
# delta_t: 0.2715
# coord_unit: pxl
# intensity_normalisation: Absolute
# aligned_to: ../../../Fimbrin/24_degree/Sc/fim1_sc_24deg.txt
# alignment_angle: 1.656823249571077 rad
# alignment_translation: [ 59.75894968 -20.73214975] pxl
# alignment_lag: -51.86610000000001 s
