#                 frames                   t (s)                 x (pxl)                 y (pxl)                       f
                    34.0     0.28109999999999324     -0.8365146363674398     0.35035160111809915      0.0614392363687127
                    35.0      0.5525999999999982                     nan                     nan                     nan
                    36.0      0.8240999999999943    -0.32530628301837083    -0.19385357717601792     0.06183754631706702
                    37.0       1.095599999999994    -0.06739090221613253     0.12061430810900475      0.1813258482670298
                    38.0      1.3670999999999935     0.08459954014503523    -0.26351610530791447      0.3027512652413551
                    39.0       1.638599999999995     -0.7381394206200298     -0.1298220215338013     0.18918259247975605
                    40.0      1.9100999999999946    -0.10387063669845276    0.061355003049811785      0.3290496722649554
                    41.0       2.181599999999994    -0.19228989353104708     0.32438699208188737      0.3705634607837371
                    42.0       2.453099999999994    -0.06662034760373103    0.031052744530708054     0.48024824572416763
                    43.0      2.7245999999999935     -0.3191896865523063    -0.09997870372912132     0.46672824228248877
                    44.0       2.996099999999995    -0.13622642116467887    -0.06606945307841627      0.4104398178836777
                    45.0      3.2675999999999945    -0.28309484785955874    -0.01233825166648117      0.5130261400780876
                    46.0       3.539099999999994    -0.17943902837041747     -0.2822754619414525      0.6546248877283953
                    47.0      3.8105999999999938       0.085812260715592   -0.045323660785154374      0.5583439203005499
                    48.0       4.082099999999993   -0.012191382902770442    -0.11763503271604847      0.6884976222856904
                    49.0       4.353599999999995    -0.23045642250009024    -0.04061903688674917      0.7477345938774992
                    50.0       4.625099999999994    -0.22749755666070115    -0.05501328723001109      0.6115965848946001
                    51.0       4.896599999999994    0.010024611456664445     0.13123250455553048      0.7450222231197122
                    52.0       5.168099999999994    -0.10008760645678194    -0.11062137133687955      0.7740842163610274
                    53.0       5.439599999999995    -0.02933193384193089   -0.011358071437971518      0.6773484556490214
                    54.0       5.711099999999995     0.07704924756098563     0.04256204347584358      0.7984033653532389
                    55.0       5.982599999999994    -0.08555711833938062    -0.08455011781752475                     1.0
                    56.0      6.2540999999999976                     nan                     nan                     nan
                    57.0       6.525599999999994    -0.06137135840461383    -0.19345086247236054      0.7597026225534741
                    58.0       6.797099999999995     0.23766103374085645      0.5174531929639272      0.8626816941605889
                    59.0       7.068599999999993    -0.11866598477614332      0.6034362271438205      0.7694382424961304
                    60.0       7.340099999999996    -0.26171634395871024       0.764957515606806      0.6949179923422646
                    61.0       7.611599999999996    -0.18439360961399842      0.7769756409787689      0.8395718153422203
                    62.0       7.883099999999995    -0.31494392825473483      0.7781692073988857      0.6613165533927023
                    63.0       8.154599999999995     0.05620644148525855      0.7471631810997437      0.8167654247063965
                    64.0       8.426099999999995    -0.20468796008105983      0.8819825260631262      0.5754229592175684
                    65.0       8.697599999999994     0.18675779666003223       0.808126067473566      0.7141033036312933
                    66.0       8.969099999999994    -0.06150404772500906      1.0750820322365442       0.690709837494809
                    67.0       9.240599999999993    -0.35544582329551133      1.1558874677929332      0.6197454035588015
                    68.0       9.512099999999993    -0.16722451867955357      0.7673523979450927      0.4465914940778833
                    69.0       9.783599999999996  -0.0003165167282332959      0.5781055669713169      0.3615840736893891
                    70.0      10.055099999999996    -0.04310556314027991      1.2657256229129281      0.5632178761270694
                    71.0                 10.3266                     nan                     nan                     nan
                    72.0      10.598099999999995      0.1401790208157223      0.2649678615760145      0.1996668361166741
                    73.0      10.869599999999995    -0.07819042771942719   -0.011949735213097057     0.12849754034095454
                    74.0      11.141099999999994     0.24326257179917832   -0.016001652844391145      0.2050737253862158
                    75.0      11.412599999999994    -0.13130195504308517    -0.20953216014342146    0.023053688142333353
                    76.0      11.684099999999994                     nan                     nan                     nan
                    77.0      11.955599999999993    -0.07413930696034043      0.9012727856095104                     0.0
                    78.0      12.227099999999997    -0.47232599816958043       0.849108242586265    0.029759401475649115
#-----------------------------------------------------------------------------------------------------------------------
# experiment: sac6_and_rvs167_raw_trajectories
# path: /Users/andreapicco/Google Drive/RESEARCH/EvoCellBio/Protein_tracking/Data/Rvs167/24_degree/Sc/sac6_and_rvs167_raw_trajectories
# file: 14.W1data.txt
# protein: Sac6-mCherry
# date: 23/01/19
# notes: the trajectory of the reference protein
# t_unit: s
# delta_t: 0.2715
# coord_unit: pxl
# intensity_normalisation: Absolute
# aligned_to: ../../../Fimbrin/24_degree/Sc/fim1_sc_24deg.txt
# alignment_angle: 1.4556540886394997 rad
# alignment_translation: [ 63.64966745 -25.20411508] pxl
# alignment_lag: -8.949900000000007 s
