#                frames                  t (s)                x (pxl)                y (pxl)                      f
                    7.0     3.2698999999999963     0.4602648047046003   -0.11430722436031004                    0.0
                    8.0      3.541399999999997                    nan                    nan                    nan
                    9.0      3.812899999999997                    nan                    nan                    nan
                   10.0      4.084399999999997    0.19587670203680574      0.332224398647206   0.020775991285986936
                   11.0     4.3558999999999966    -0.2459172662102347     0.3240819456056414     0.0859274049202013
                   12.0      4.627399999999996  -0.053451009542726524    0.46908888039289565     0.1835088451444072
                   13.0      4.898899999999996    -0.0880630548283321     0.4905124652737456    0.25166843103735426
                   14.0      5.170399999999996   -0.10087017695656186    0.45394247983770697    0.31545990730832335
                   15.0      5.441899999999997    -0.1701289302995761      0.560192011254891    0.42037532280326284
                   16.0     5.7133999999999965  -0.021495430476790034    0.37630158492869015     0.3712914236269974
                   17.0      5.984899999999996   -0.04674897745077544     0.6262677266503971     0.4157447590533274
                   18.0      6.256399999999997     0.0414066883106301    0.41697824380148774     0.4972343728762943
                   19.0      6.527899999999996  -0.022368632056668503    0.43876310352214887     0.4767499334771631
                   20.0      6.799399999999997   -0.12439038278714776    0.22961100506056198     0.5457541201086572
                   21.0      7.070899999999996   -0.15984763254999024    0.32271979598417033     0.7137031301148404
                   22.0      7.342399999999997   -0.17809007920480013     0.2720025388220719     0.8632973886675714
                   23.0      7.613899999999997    -0.1154436495972817     0.2942534310610583     0.9381628593908231
                   24.0      7.885399999999996   -0.10111276915717582     0.1905483804086856     0.9382597242987344
                   25.0      8.156899999999997   -0.08446724783287607     0.1675118225746175                    1.0
                   26.0      8.428399999999996     0.2959640360880229  -0.017489863040133002     0.8580923356120196
                   27.0      8.699899999999996     0.4813916321760203   -0.20242761454323954     0.7108624614023971
                   28.0      8.971399999999997                    nan                    nan                    nan
                   29.0      9.242899999999997    0.33857404306031214    -0.1795704730951968     0.5050448239489871
                   30.0      9.514399999999998     0.7039410877497971   -0.28930752524655645     0.4738845699561811
                   31.0      9.785899999999998      0.439213900365246   -0.19308952478683494    0.44013499828667807
                   32.0     10.057399999999998    0.08052440140825468   -0.03994591801534142    0.33249741087375595
                   33.0     10.328899999999997   -0.08802977846585236    -0.5853173669049667     0.2753855931635581
                   34.0     10.600399999999997    -0.5031733613090026    -0.9971364709654225     0.3708363882789633
                   35.0     10.871899999999997    -0.8953373458282599    -0.9540418000422193    0.29536311897346174
                   36.0     11.143399999999996                    nan                    nan                    nan
                   37.0     11.414899999999996   -0.26124522944598283   -0.12987853326563936   0.016157104926135733
                   38.0     11.686399999999999                    nan                    nan                    nan
                   39.0     11.957899999999999     0.6196489169552564     0.0691822548696237    0.00866251768358868
#------------------------------------------------------------------------------------------------------------------
# experiment: sac6_and_rvs167_raw_trajectories
# path: /Users/andreapicco/Google Drive/RESEARCH/EvoCellBio/Protein_tracking/Data/Rvs167/24_degree/Sc/sac6_and_rvs167_raw_trajectories
# file: 15.W2data.txt
# protein: Rvs167-GFP
# date: 23/01/19
# notes: the trajectory of the target protein
# t_unit: s
# delta_t: 0.2715
# coord_unit: pxl
# intensity_normalisation: Absolute
# aligned_to: ../../../Fimbrin/24_degree/Sc/fim1_sc_24deg.txt
# alignment_angle: -0.45315518849422964 rad
# alignment_translation: [-40.70312792 -50.170676  ] pxl
# alignment_lag: 1.3693999999999962 s
