#                frames                  t (s)                x (pxl)                y (pxl)                      f
                  131.0     2.6957999999999913    -0.8899276158737166     0.5285022425994228                    0.0
                  132.0     2.9672999999999874    -0.6519295722299319   -0.13164442482058547    0.08461109562308333
                  133.0     3.2387999999999906                    nan                    nan                    nan
                  134.0     3.5102999999999867    -0.7642830739754061   -0.12309903808084499    0.12428228225483338
                  135.0       3.78179999999999    -0.7270141591278474    0.04214047224003892    0.18886710408919474
                  136.0      4.053299999999986    -0.8333253142703541    0.13052952204409607     0.1854084497601387
                  137.0      4.324799999999989    -0.8275429453185694    -0.1830802673667371    0.25355323285919656
                  138.0      4.596299999999992    -0.7895607542654801    0.08117434492377384    0.34023591566997397
                  139.0      4.867799999999988    -0.7739991583496391    0.18423381171141529     0.5192236892685232
                  140.0     5.1392999999999915    -0.8767036120767955   0.022452261126662876     0.4651331487972911
                  141.0      5.410799999999988    -0.5389869767017927    0.07587747873026274     0.5237738687011334
                  142.0      5.682299999999991     -0.618904610863737      0.271837289525628     0.5609697638151937
                  143.0      5.953799999999987    -0.5948041054757311    0.24844991117656434     0.5815861060711546
                  144.0       6.22529999999999    -0.7513778250784782     0.3755024415518413     0.6487513348902609
                  145.0      6.496799999999986   -0.47268227036343546    0.20797122225502207     0.7136616592095619
                  146.0      6.768299999999989    -0.7117667407649577     0.4599181993788406     0.7311288537894634
                  147.0     7.0397999999999925    -0.5987530609140208    0.30256972521862124     0.8465542692875456
                  148.0      7.311299999999989    -0.5847251952060901      0.409646677868011      0.840080781490334
                  149.0      7.582799999999992   -0.47610353885531254     0.2690575308593779                    1.0
                  150.0      7.854299999999988   -0.42802809542655496     0.2180842313376843     0.9299946223536418
                  151.0      8.125799999999991   -0.38540644577156513       0.33255492455514     0.9096491936323385
                  152.0      8.397299999999987    -0.4317973611026531    0.21238276220568508     0.8655705205449957
                  153.0       8.66879999999999   0.007424759000386416    0.14210913707368888     0.7520270273701378
                  154.0      8.940299999999986     0.2816193330097576  -0.016076756509857404     0.5518701666562567
                  155.0       9.21179999999999    0.36561544561998005    0.04652542453338526     0.5277370264916367
                  156.0      9.483299999999993    0.06719509545339974   -0.16049172731749906     0.4067387139249556
                  157.0      9.754799999999989    0.32847492762820707    -0.2860187852918763    0.23447655290329425
                  158.0     10.026299999999992     0.2522899383314865   -0.03115611103207172    0.20464356462290714
                  159.0     10.297799999999988     0.7611107004968574    0.16813640420983234     0.2136400775315435
                  160.0     10.569299999999991    0.23892087214446178   0.030757812226656966    0.14918779259042594
                  161.0     10.840799999999987     0.9041379902063795    0.13167369064720447    0.09995769991108347
                  162.0      11.11229999999999     0.8206049432731106     0.1141302147360328    0.11331345787738864
#------------------------------------------------------------------------------------------------------------------
# experiment: sac6_and_rvs167_raw_trajectories
# path: /Users/andreapicco/Google Drive/RESEARCH/EvoCellBio/Protein_tracking/Data/Rvs167/24_degree/Sc/sac6_and_rvs167_raw_trajectories
# file: 23.W2data.txt
# protein: Rvs167-GFP
# date: 23/01/19
# notes: the trajectory of the target protein
# t_unit: s
# delta_t: 0.2715
# coord_unit: pxl
# intensity_normalisation: Absolute
# aligned_to: ../../../Fimbrin/24_degree/Sc/fim1_sc_24deg.txt
# alignment_angle: 1.8001967466337738 rad
# alignment_translation: [ 99.21164629 -24.87050951] pxl
# alignment_lag: -32.870700000000014 s
