#                 frames                   t (s)                 x (pxl)                 y (pxl)                       f
                   119.0     -0.5622000000000114     0.39135263228497763    -0.27652200388475734                     0.0
                   120.0     -0.2907000000000082     -0.1553414238291424     -0.8126395013584933     0.02046117872193782
                   121.0    -0.01920000000000499                     nan                     nan                     nan
                   122.0      0.2522999999999911     -0.6253175920917471     0.11506504148163543     0.11451074599894408
                   123.0      0.5237999999999872     -0.4173012984871036    -0.11600061318601007      0.1526391879285724
                   124.0      0.7952999999999903     -0.5691319890795512   -0.029216462264184173     0.34560295126086876
                   125.0      1.0667999999999864     -0.2453475994351635     0.45685163466009726      0.2360897003480818
                   126.0      1.3382999999999896     -0.5626603135492303   -0.030646301706358514      0.2978327434239904
                   127.0      1.6097999999999857     -0.6843763024973697     -0.1314741457791868      0.3233465648940223
                   128.0      1.8812999999999889    -0.40849504507282575     -0.2901811497703335      0.3331356239236608
                   129.0       2.152799999999992                     nan                     nan                     nan
                   130.0       2.424299999999988     -0.3387796700509398    -0.09576518080287855      0.5785611020969376
                   131.0      2.6957999999999913      -0.290608646175599     -0.0776559856578487      0.6438291744162318
                   132.0      2.9672999999999874     -0.1079304609732219    -0.08931659272495196      0.6936968549311667
                   133.0      3.2387999999999906    -0.18676388069476957    -0.17968315597160256      0.7001714696712292
                   134.0      3.5102999999999867    -0.10664298833133046    -0.05592404193594547      0.8471453406159274
                   135.0        3.78179999999999    -0.13213220825581118      0.1380720019197028      0.7638909863357124
                   136.0       4.053299999999986     -0.1652583939640806     0.02634232392221847      0.9297923725431659
                   137.0       4.324799999999989   -0.005362576162724508   -0.015752127916883296      0.8577927951092169
                   138.0       4.596299999999992    -0.11186961090757563   -0.035594980707116974      0.8421445878619764
                   139.0       4.867799999999988    -0.05477112661007766    -0.14675316649173809      0.8402411791082042
                   140.0      5.1392999999999915     0.09276294279780473      0.0907243703995313      0.8554472742977225
                   141.0       5.410799999999988     -0.0936285213103929    -0.12328530320798947      0.8382107213104761
                   142.0       5.682299999999991    0.061957641214306136    -0.07471868739180465      0.9816718956112932
                   143.0       5.953799999999987   -0.024290645577181635     0.09197385570935523                     1.0
                   144.0        6.22529999999999                     nan                     nan                     nan
                   145.0       6.496799999999986     0.10580268088540379      0.1340495173191627      0.6940074968243557
                   146.0       6.768299999999989   -0.024087511352291813     0.14192769226358593      0.8483488161751583
                   147.0      7.0397999999999925     0.31059424072596187      0.3233088702612861       0.792060737819871
                   148.0       7.311299999999989  -0.0048259937286871946     0.23974517313401122      0.8593006299166062
                   149.0       7.582799999999992     0.09588513113583019     0.26785155293507756      0.8455146451946027
                   150.0       7.854299999999988      0.2586996594763775     0.08157874418070321      0.7903032260451471
                   151.0       8.125799999999991      0.3209020367088158    -0.14531785817295528      0.6893183167258206
                   152.0       8.397299999999987     0.23124763440299034   -0.009594137249955281      0.8120428066855722
                   153.0        8.66879999999999     0.38474577975377144    0.010868432429035124      0.6971483539586365
                   154.0       8.940299999999986       0.533991442627439     -0.0628225341706603      0.5792368354735824
                   155.0        9.21179999999999     0.17722224003284737    -0.11212518614808076      0.5187600944072127
                   156.0       9.483299999999993     0.44766863846533056   -0.029921894274288263      0.4485168652952041
                   157.0       9.754799999999989     0.41783421170474355     0.06442043983329526     0.39494451842711426
                   158.0      10.026299999999992     0.24991045750121543    -0.27739801098408634       0.546320196632828
                   159.0      10.297799999999988      0.4452864502375036     0.29285215162817835     0.40764569977380155
                   160.0      10.569299999999991     0.21763513128256307     0.12076961629679062        0.44064866681109
                   161.0      10.840799999999987     0.19635945466251314     -0.3294569642483367      0.3552689169860151
                   162.0       11.11229999999999      0.6807154605453292      0.1178804747473734     0.31810171974609747
                   163.0      11.383799999999987     0.17498625480342866    -0.23766337008848382     0.19115692115955293
                   164.0       11.65529999999999     0.13321718907418756     -0.4932736371066646      0.1770870539583805
                   165.0      11.926799999999993      0.8198495567991273       -0.45744413974138     0.24585176727314356
                   166.0      12.198299999999996                     nan                     nan                     nan
                   167.0      12.469799999999992      0.8818192755999803    0.009682748137855413     0.07899425556822684
                   168.0      12.741299999999995                     nan                     nan                     nan
                   169.0      13.012799999999991      0.6588523519926639    -0.41300778532851723     0.09715272854110237
                   170.0      13.284299999999988     0.18296034122066374      -0.710742406874953      0.1400841362514901
#-----------------------------------------------------------------------------------------------------------------------
# experiment: sac6_and_rvs167_raw_trajectories
# path: /Users/andreapicco/Google Drive/RESEARCH/EvoCellBio/Protein_tracking/Data/Rvs167/24_degree/Sc/sac6_and_rvs167_raw_trajectories
# file: 23.W1data.txt
# protein: Sac6-mCherry
# date: 23/01/19
# notes: the trajectory of the reference protein
# t_unit: s
# delta_t: 0.2715
# coord_unit: pxl
# intensity_normalisation: Absolute
# aligned_to: ../../../Fimbrin/24_degree/Sc/fim1_sc_24deg.txt
# alignment_angle: 1.8001967466337738 rad
# alignment_translation: [ 99.21164629 -24.87050951] pxl
# alignment_lag: -32.870700000000014 s
