#                frames                  t (s)                x (pxl)                y (pxl)                      f
                  137.0    -2.7173000000000087    -1.5044506033012084   -0.21136365564154858    0.13438350350750183
                  138.0    -2.4458000000000055    -1.6044608273248784    0.23012440744477658                    0.0
                  139.0    -2.1743000000000023                    nan                    nan                    nan
                  140.0    -1.9028000000000063    -1.1255281505301795   -0.06112101747254428     0.2814681386716237
                  141.0    -1.6313000000000102   -0.42218309343203586     0.2638338158821796    0.22832703781726427
                  142.0     -1.359800000000007    -0.7923011304160141   0.013153769823219363    0.17685519288859525
                  143.0     -1.088300000000011    -0.6922859412022326  -0.056390068980306296     0.2556030733128368
                  144.0    -0.8168000000000077   -0.21800573086758135   -0.11088997324551997       0.45606165060942
                  145.0    -0.5453000000000117     -0.395850876408268    0.09872564652459914     0.2734473567474041
                  146.0    -0.2738000000000085      -1.10989281456769    0.11681737995573371     0.4156941742632133
                  147.0  -0.002300000000005298    -1.1257539266744274   -0.20256189207790953     0.3190904883617767
                  148.0     0.2691999999999979                    nan                    nan                    nan
                  149.0      0.540699999999994    0.10322786764607983    -0.0841418045051654      0.565455283912732
                  150.0       0.81219999999999   -0.24207215318088515    -0.0803951864445338    0.46328981201787445
                  151.0     1.0836999999999932    -0.3944287714428327   -0.12597950147487325     0.6626739588394231
                  152.0     1.3551999999999893   -0.09981553539361698    0.09110901903372337     0.5501967388778684
                  153.0     1.6266999999999925   -0.21307689692826415     0.0946864808877308     0.5124068394845037
                  154.0     1.8981999999999886   -0.18417586052568424   -0.26580309381847655     0.7246130994102634
                  155.0     2.1696999999999917    -0.7012687946773362   -0.01815843003498685     0.7573779479626148
                  156.0      2.441199999999995   -0.14379306962148064    -0.0973823041730526     0.6049403638276994
                  157.0      2.712699999999991   -0.25467693713217443   -0.17821118182126838     0.8145599251835366
                  158.0      2.984199999999994   -0.27540564063197337   -0.02405890116276055     0.5949920401888846
                  159.0     3.2556999999999903   -0.30344710624293825    0.23004367003710513     0.5974971242901942
                  160.0     3.5271999999999935    -0.2001082517162125   0.011248264575513645     0.5993406511106288
                  161.0     3.7986999999999895     0.1336778323002612   -0.03471394122384197     0.5830864095586866
                  162.0      4.070199999999993   -0.23556251633293357    0.09854111913124086     0.8028444082566957
                  163.0      4.341699999999989  -0.025144077045801794   -0.13574428027932584     0.5899866728373606
                  164.0      4.613199999999992    -0.0880056283688262   -0.20513881365383213     0.7579895763921027
                  165.0      4.884699999999995    -0.2503009336129729   -0.17883584909264982     0.7538157164502122
                  166.0      5.156199999999991    -0.4328098214005571    -0.1970834630884326     0.8617287672758627
                  167.0      5.427699999999994  0.0008386648065830116   -0.12141229556569044                    1.0
                  168.0     5.6991999999999905   -0.06757852886026328    0.13420389413236933     0.9375063611277007
                  169.0      5.970699999999994     0.2802680441138605     0.1419929807386211      0.914016276805552
                  170.0       6.24219999999999    0.11873019856426836     -0.474783857523164     0.6562105730103832
                  171.0      6.513699999999993   -0.01829740561205284      0.209441363609983     0.5992254306843516
                  172.0      6.785199999999996                    nan                    nan                    nan
                  173.0      7.056699999999992    -0.3223080864624137     0.3147697419935156    0.12869737547072338
                  174.0      7.328199999999995                    nan                    nan                    nan
                  175.0     7.5996999999999915    0.45546941896926896     0.5879474811551688      0.312930036236824
                  176.0      7.871199999999995                    nan                    nan                    nan
                  177.0       8.14269999999999    -1.1030049862402578      0.646702072437904    0.09254792689648021
#------------------------------------------------------------------------------------------------------------------
# experiment: sac6_and_rvs167_raw_trajectories
# path: /Users/andreapicco/Google Drive/RESEARCH/EvoCellBio/Protein_tracking/Data/Rvs167/24_degree/Sc/sac6_and_rvs167_raw_trajectories
# file: 24.W1data.txt
# protein: Sac6-mCherry
# date: 23/01/19
# notes: the trajectory of the reference protein
# t_unit: s
# delta_t: 0.2715
# coord_unit: pxl
# intensity_normalisation: Absolute
# aligned_to: ../../../Fimbrin/24_degree/Sc/fim1_sc_24deg.txt
# alignment_angle: 0.5500513149421364 rad
# alignment_translation: [ 17.61403396 -90.40748616] pxl
# alignment_lag: -39.91280000000001 s
