#                frames                  t (s)                x (pxl)                y (pxl)                      f
                  125.0      0.281099999999995   -0.27059700767284767     0.1388654687520301   0.004495748812649534
                  126.0     0.5525999999999982    0.27420661732546137     0.4622687465565605                    0.0
                  127.0     0.8240999999999943    -0.5536985074874963    0.40082219145007514    0.13344903787641857
                  128.0     1.0955999999999975    -0.6112526287546558   -0.14233746866392494     0.2847071202236267
                  129.0     1.3671000000000006   -0.04529341204392523   -0.18551754258899678    0.23820437943816924
                  130.0     1.6385999999999967    -0.4171601895506072     0.2911197769599454     0.2996147626632531
                  131.0                 1.9101     -0.331322557578261     0.2785492278319168    0.39417034569535453
                  132.0      2.181599999999996    -0.5841900620300464    -0.1172137157142572    0.25200407056946755
                  133.0      2.453099999999999                    nan                    nan                    nan
                  134.0     2.7245999999999952    -0.2558038339391544   -0.11775470022321599     0.4830555575758898
                  135.0     2.9960999999999984   -0.44289435628063245   -0.13919559747573373     0.5632211078058442
                  136.0     3.2675999999999945  -0.014635665944233267   -0.15581688170261998     0.6580654976204502
                  137.0     3.5390999999999977   -0.16746045719290947   -0.14178099538229105     0.7118581095005005
                  138.0      3.810600000000001   -0.29798590769841127    0.05318940929323901     0.5444059368734439
                  139.0      4.082099999999997   -0.20283386099774958   -0.15301259648187227     0.5059246302182203
                  140.0                 4.3536     0.0711385589411293   -0.17617391280528238     0.5766607753719637
                  141.0      4.625099999999996   -0.28682730968337466   -0.18793121967770787     0.6620809119627223
                  142.0      4.896599999999999   0.012354954063233947   0.023631358460406204     0.6710866529445563
                  143.0     5.1680999999999955    0.17685275702921643  -0.006102026687699436     0.7975676589740418
                  144.0      5.439599999999999  -0.018555141515790297     0.1784572684215533     0.7538799509301214
                  145.0      5.711099999999995    0.01003266774494449    0.03713777364934856     0.7489175049033512
                  146.0      5.982599999999998    0.20257402001457336  -0.045529881187249543                    1.0
                  147.0      6.254100000000001                    nan                    nan                    nan
                  148.0      6.525599999999997     0.2404693068342283    0.05274299400146276     0.8260537659434677
                  149.0                 6.7971    0.23832660813656759   -0.17203786986219427     0.7456172888892121
                  150.0      7.068599999999996    0.25923347077433334   -0.18232741249758533     0.7744988762900844
                  151.0                 7.3401    0.19465142414746595    -0.3806106099135178     0.6799490512106247
                  152.0      7.611599999999996     0.1570680274178784   -0.22135111226812398      0.715422585235882
                  153.0      7.883099999999999    0.35137759506430655   -0.24226603022300708     0.8915680541514232
                  154.0      8.154599999999995    0.14476258422940447   -0.15724885467186311     0.7182712565428525
                  155.0      8.426099999999998    0.24183000411905908  -0.013539456729475319     0.6241605511148608
                  156.0      8.697600000000001     0.3356868336545915   -0.34608628437113964    0.45604651698414195
                  157.0      8.969099999999997    0.26089524841471246   -0.03706302516512494    0.47021562623492935
                  158.0                 9.2406  -0.030584350784131686   -0.13436364926837996     0.5481928514108801
                  159.0      9.512099999999997    -0.0883662088400996    -0.3183466828600814     0.5282585163150072
                  160.0                 9.7836     0.3314842077507265   -0.12279436499984797     0.5339685870347877
                  161.0     10.055099999999996     0.2685568225940571    0.06657826412678958     0.6488742899535241
                  162.0                10.3266     0.4139594208424171     0.3988762032004871     0.7174005934933922
                  163.0     10.598099999999995     0.6468762438504854     0.6581586229532235     0.4384623357165196
                  164.0     10.869600000000005                    nan                    nan                    nan
                  165.0     11.141100000000002     0.7676201632520758    -0.1447028150574141     0.3443986030600791
                  166.0     11.412599999999998      0.615016464308141    0.38332162992368524     0.3381454664911399
                  167.0                11.6841     0.8046868906255042     0.2496066342927321     0.4861700038547977
                  168.0     11.955599999999997     0.5278817954036157   -0.29938030219229006    0.30258465402583923
                  169.0                12.2271     0.7450208501381539    -0.5568970262355748    0.39873579603998327
                  170.0     12.498599999999996     0.5666949396862364    -0.2558616599237524    0.35066871043680437
                  171.0                12.7701     0.6657039090413264   -0.38522516138858975    0.14491463683683534
                  172.0     13.041599999999995     0.7936893706547181     -0.624174399614219    0.26453276941763454
                  173.0     13.313099999999999     1.0118420480045884    -0.1271044125750933       0.13390603748609
                  174.0     13.584600000000002                    nan                    nan                    nan
                  175.0     13.856099999999998     0.7764541839159662   -0.46147457187281304    0.15994107493096515
#------------------------------------------------------------------------------------------------------------------
# experiment: sac6_and_rvs167_raw_trajectories
# path: /Users/andreapicco/Google Drive/RESEARCH/EvoCellBio/Protein_tracking/Data/Rvs167/24_degree/Sc/sac6_and_rvs167_raw_trajectories
# file: 28.W1data.txt
# protein: Sac6-mCherry
# date: 23/01/19
# notes: the trajectory of the reference protein
# t_unit: s
# delta_t: 0.2715
# coord_unit: pxl
# intensity_normalisation: Absolute
# aligned_to: ../../../Fimbrin/24_degree/Sc/fim1_sc_24deg.txt
# alignment_angle: -2.3597970667119754 rad
# alignment_translation: [16.2633487  89.75659128] pxl
# alignment_lag: -33.656400000000005 s
