#                frames                  t (s)                x (pxl)                y (pxl)                      f
                    6.0    -0.2811000000000079    -0.6860483363718046    -0.1530966372416458                    0.0
                    7.0   -0.00960000000000738                    nan                    nan                    nan
                    8.0    0.26189999999999225    -0.6127627696903843   -0.12496627630932267    0.17049005110214863
                    9.0     0.5333999999999923    -0.6876007475621719   -0.15011529786210076    0.09353332922149331
                   10.0     0.8048999999999924   -0.30583233470892424     -0.387125081990348    0.14452340514511533
                   11.0     1.0763999999999925    -0.4776413265274755    -0.1481027602162044    0.19763308446672193
                   12.0      1.347899999999992    -0.6063455805242732   -0.16502585340651876    0.27362176888350004
                   13.0     1.6193999999999922    -0.3562923925362078     -0.317619705989145     0.3025041858030198
                   14.0     1.8908999999999923     -0.367722604863701  -0.003033848736876621     0.4157600560814867
                   15.0     2.1623999999999928    -0.2954421791817694   -0.14594043033910964     0.3536544730551624
                   16.0     2.4338999999999924   -0.35357961978106545    0.07900366131158876     0.4433367130652714
                   17.0      2.705399999999992    -0.2968676948653268   -0.04380578455212003     0.6478107460432314
                   18.0     2.9768999999999926   -0.07768753129718675   -0.04089881237430859     0.5928120021602203
                   19.0      3.248399999999992   -0.19477951340292776    0.02804862819129994     0.7013931616088527
                   20.0     3.5198999999999927   -0.23503319397062228   0.040255606062743254     0.7050377812912281
                   21.0     3.7913999999999923   -0.05809945572565667     0.1482633469504293     0.7724589204614688
                   22.0      4.062899999999993   -0.13768980420930177   0.014536025141268283     0.9052263492727308
                   23.0     4.3343999999999925   -0.12253263527730951     0.0847554805647377      0.764205028379218
                   24.0      4.605899999999992  -0.025787558078967265   -0.05501332281387761     0.7819971357523992
                   25.0      4.877399999999993   -0.26631842177139475   -0.19365907621575218     0.8152556536546987
                   26.0      5.148899999999992  -0.033723254976770534   0.005235350505515157     0.7520944058416209
                   27.0      5.420399999999993    0.02733648191527749    -0.1388041922967318     0.9972658770930896
                   28.0      5.691899999999992    0.13561267371992614    -0.1812417970392488                    1.0
                   29.0      5.963399999999993    0.14268814414751319   0.059036775867781444     0.9484138326310612
                   30.0     6.2348999999999934    0.18836490409977102   -0.03844060584339104     0.9624718125843366
                   31.0      6.506399999999993   0.009729727476290861    0.14191913800399902     0.8175414857080966
                   32.0      6.777899999999993   0.026565146301990694     0.3296776955904903     0.6656009730017585
                   33.0      7.049399999999992    0.31866110876685383     0.2174189663409436     0.6745351991058252
                   34.0      7.320899999999992    0.24662907224512054    0.16903572136365597     0.7439397996531011
                   35.0      7.592399999999993     0.1865994932697035    0.22953048223627093     0.6721955871933232
                   36.0      7.863899999999993   0.011354528822622001    0.37497956297912083     0.6513850382175475
                   37.0      8.135399999999994   -0.04329200629226193    0.31412100662969067     0.5749766452499974
                   38.0      8.406899999999993    0.09752069009881836     0.3815379588900214     0.5904968356382203
                   39.0      8.678399999999993    -0.0918708995781472     0.4265426238219163     0.5438907584389249
                   40.0      8.949899999999992    -0.4608931976557997    0.17570497576348032     0.4926205007318575
                   41.0      9.221399999999992   -0.20961852997768204     0.3141599389221028     0.5416602105763546
                   42.0      9.492899999999992   -0.33727215898531426     0.3025451934155825     0.4486526452921186
                   43.0      9.764399999999991    -0.5838911324521092    0.28297954363884514    0.34510836453568045
                   44.0     10.035899999999994    -0.3043932628527912     0.5650729487769866     0.5031839180921464
                   45.0     10.307399999999994    -0.4844526627272927     0.4218234850543183    0.35514376146112736
                   46.0     10.578899999999994    -0.5312554856142739     0.5463351242042762     0.3127720019797005
                   47.0     10.850399999999993   -0.12839597503629108     0.5162538502474661     0.3147787804984452
                   48.0     11.121899999999993    -0.8022683759941387    0.15802840283578234      0.240436963235637
#------------------------------------------------------------------------------------------------------------------
# experiment: sac6_and_rvs167_raw_trajectories
# path: /Users/andreapicco/Google Drive/RESEARCH/EvoCellBio/Protein_tracking/Data/Rvs167/24_degree/Sc/sac6_and_rvs167_raw_trajectories
# file: 29.W1data.txt
# protein: Sac6-mCherry
# date: 23/01/19
# notes: the trajectory of the reference protein
# t_unit: s
# delta_t: 0.2715
# coord_unit: pxl
# intensity_normalisation: Absolute
# aligned_to: ../../../Fimbrin/24_degree/Sc/fim1_sc_24deg.txt
# alignment_angle: -1.441167411735226 rad
# alignment_translation: [-23.15548057  82.31436037] pxl
# alignment_lag: -1.910100000000008 s
