#                frames                  t (s)                x (pxl)                y (pxl)                      f
                   15.0     2.1623999999999928   -0.29752800231756993    0.49511141264618175   0.021511509457139526
                   16.0     2.4338999999999924    -0.4663154863820438  -0.013472151995046033   0.007225056850696173
                   17.0      2.705399999999992   -0.48671456386230716     0.3524853459442028   0.019632590204602573
                   18.0     2.9768999999999926    -0.7880784582818237    -0.1777041400005004    0.08332035030215507
                   19.0      3.248399999999992    -0.5528584366118459    0.23847966461782732    0.20439548010749947
                   20.0     3.5198999999999927    -0.7054306319498416   0.058309600429168995     0.4072352435366975
                   21.0     3.7913999999999923    -0.5288548486094555    0.29766609499684193     0.6155540957967937
                   22.0      4.062899999999993    -0.6874090349914965    0.08338658103031094     0.6546953132256141
                   23.0     4.3343999999999925    -0.5842686511646384    0.19192982983027207     0.7894528101770987
                   24.0      4.605899999999992    -0.6224734862744654   0.032331193118579904     0.7047093199188661
                   25.0      4.877399999999993    -0.6942644072668145    0.05224815973176078      0.771760558949453
                   26.0      5.148899999999992   -0.48170560122145645    0.18091736819116022                    1.0
                   27.0      5.420399999999993      -0.12041130713407     0.3317842853363686      0.805456018983189
                   28.0      5.691899999999993                    nan                    nan                    nan
                   29.0      5.963399999999993   0.051456431484869114     0.3964666609885654     0.5721003897905438
                   30.0     6.2348999999999934     0.0643938807884119    0.44911072296632426     0.4866075039922821
                   31.0      6.506399999999993   -0.02669174031291277     0.3617282879888819     0.4112646021649704
                   32.0      6.777899999999993      -0.14044254200439     0.5390710746466709    0.27313126743346444
                   33.0      7.049399999999992      0.304796214264897      0.383243987810701   0.009289358808037914
                   34.0      7.320899999999992     0.6067686789693383     0.4968862815103847     0.1889997273563453
                   35.0      7.592399999999993  -0.027617645081669195    0.38034983589338367                    0.0
                   36.0      7.863899999999993   0.023732216184978228      0.762831685520112    0.06941851999436734
                   37.0      8.135399999999994    0.40035678723524626     1.1521085651086764    0.17277293577294478
                   38.0      8.406899999999993    0.14825197875364182     0.7923132317795023    0.05355050948410424
                   39.0      8.678399999999993     0.4029209133491989     0.8080463137714133   0.009641773202424398
                   40.0      8.949899999999992     -0.244406754859547    0.36577706928177633     0.1555368383522736
#------------------------------------------------------------------------------------------------------------------
# experiment: sac6_and_rvs167_raw_trajectories
# path: /Users/andreapicco/Google Drive/RESEARCH/EvoCellBio/Protein_tracking/Data/Rvs167/24_degree/Sc/sac6_and_rvs167_raw_trajectories
# file: 29.W2data.txt
# protein: Rvs167-GFP
# date: 23/01/19
# notes: the trajectory of the target protein
# t_unit: s
# delta_t: 0.2715
# coord_unit: pxl
# intensity_normalisation: Absolute
# aligned_to: ../../../Fimbrin/24_degree/Sc/fim1_sc_24deg.txt
# alignment_angle: -1.441167411735226 rad
# alignment_translation: [-23.15548057  82.31436037] pxl
# alignment_lag: -1.910100000000008 s
