#               frames                 t (s)               x (pxl)               y (pxl)                     f
                 162.0     1.881299999999996    -0.357379397058466   0.20919441750581313   0.04964627296060461
                 163.0     2.152799999999992  -0.40254022523695454     0.419831823792606   0.04212731624187275
                 164.0    2.4242999999999952   -0.4168220491095269  -0.25671219144724944   0.06044821428495559
                 165.0    2.6957999999999984  -0.38718995801954037    0.4916386022842971    0.2920908834827254
                 166.0    2.9672999999999945  -0.01895170769792287  -0.07216035850321134    0.5558185984243204
                 167.0    3.2387999999999977  -0.40904104188532386    0.1128222410709867    0.6024308616698056
                 168.0    3.5102999999999938   -0.3840353106931822   0.18008946711417195    0.8101965839455382
                 169.0     3.781799999999997   -0.5502552878053208  0.019249978822784897    0.9441323288796851
                 170.0     4.053299999999993  -0.20694811799457824  -0.00810795767728223    0.8472126921111073
                 171.0     4.324799999999996  -0.47155222876320835   0.07182448875310854    0.8427209471582661
                 172.0     4.596299999999992  -0.23034329014159027    0.0644994433587982    0.9911796608758052
                 173.0    4.8677999999999955   -0.3759444830877996   0.14445780796589247                   1.0
                 174.0     5.139299999999999  0.045066172208706234   0.06775258167839127    0.8187199376628055
                 175.0     5.410799999999995    0.1903969307145701    0.4426866121772406   0.48437257690286284
                 176.0     5.682299999999998   0.43756532825319283   0.12842555603569394    0.2746413975563922
                 177.0     5.953799999999994    0.7653234332717602  -0.23010024844234067   0.12591883843441534
                 178.0     6.225299999999997    0.9388841523710525  -0.27116992643888693   0.26426730216162037
                 179.0     6.496799999999993    0.9154291039476448    0.2927007198342437   0.36166449486351204
                 180.0     6.768299999999996     0.827379071725499   0.01893828329539815   0.39950315488574983
                 181.0    7.0397999999999925     0.718381384948259    0.6574698656225593    0.3801056316335769
                 182.0     7.311300000000003                   nan                   nan                   nan
                 183.0     7.582799999999999      1.10197143077162   0.10543328626368975   0.33063865458387837
                 184.0     7.854299999999995    0.7958738356163906   0.09562329435824779  0.033088592998707124
                 185.0     8.125799999999998    1.1804390744174427    -0.538454541613703   0.15466651597879208
                 186.0     8.397300000000001                   nan                   nan                   nan
                 187.0     8.668799999999997    0.9811365691060772    0.6415527063850561   0.22912827772681674
                 188.0                8.9403                   nan                   nan                   nan
                 189.0     9.211799999999997     1.384208916078677   -0.8953221562263991   0.21028861118322134
                 190.0                9.4833                   nan                   nan                   nan
                 191.0     9.754799999999996                   nan                   nan                   nan
                 192.0    10.026299999999992    1.2586722834341622   -1.2534384622839099                   0.0
                 193.0    10.297799999999995    1.7588824590571654    -0.622425695271076   0.11753781677912314
#-------------------------------------------------------------------------------------------------------------
# experiment: sac6_and_rvs167_raw_trajectories
# path: /Users/andreapicco/Google Drive/RESEARCH/EvoCellBio/Protein_tracking/Data/Rvs167/24_degree/Sc/sac6_and_rvs167_raw_trajectories
# file: 33.W2data.txt
# protein: Rvs167-GFP
# date: 23/01/19
# notes: the trajectory of the target protein
# t_unit: s
# delta_t: 0.2715
# coord_unit: pxl
# intensity_normalisation: Absolute
# aligned_to: ../../../Fimbrin/24_degree/Sc/fim1_sc_24deg.txt
# alignment_angle: 0.7656497533621358 rad
# alignment_translation: [ 23.27409936 -78.90980512] pxl
# alignment_lag: -42.10170000000001 s
