#                frames                  t (s)                x (pxl)                y (pxl)                      f
                  183.0   -0.32910000000000394    -1.5350945636747042    0.38819467039716926                    0.0
                  184.0   -0.05760000000000076                    nan                    nan                    nan
                  185.0    0.21389999999999532     -0.835063167456525     0.5180896848889844     0.0808655840443903
                  186.0     0.4853999999999914    -0.6247326283709072     0.3875565458554284    0.17941830501575748
                  187.0     0.7568999999999946    -1.1457715333932725     0.6835579827406093    0.04483549668239921
                  188.0     1.0283999999999978                    nan                    nan                    nan
                  189.0     1.2998999999999938    -0.8789194450860123    0.21979126264628235    0.06921657034600616
                  190.0      1.571399999999997                    nan                    nan                    nan
                  191.0      1.842899999999993    -0.7878920917810888   -0.24292419090082262    0.15360850814211358
                  192.0      2.114399999999989    -1.4320638430084287   -0.10586649146843286     0.0800313204260655
                  193.0     2.3858999999999924    -1.5287392183389699    0.16037071734863062   0.025783983335677753
                  194.0     2.6573999999999955    -1.1794836377943554    -0.2520201304310561    0.15017942279432667
                  195.0     2.9288999999999916    -1.2293366531880423   -0.20712709216055458         0.357087649307
                  196.0      3.200399999999995    -1.1262924472044062  -0.008547796403917118     0.2820996956247175
                  197.0      3.471899999999991    -0.9687247698572605   -0.30032341345479807     0.4876326965495157
                  198.0      3.743399999999994    -1.2028350953592621      -0.30739560910704     0.5941228933908365
                  199.0       4.01489999999999    -0.9590832235770179   -0.45056780264562946      0.545947349361171
                  200.0      4.286399999999993    -0.9114726452410125   -0.16261645478195064     0.7553101066360995
                  201.0      4.557899999999989    -1.0416692474139282   -0.03833972868800828     0.6514603728522388
                  202.0      4.829399999999993    -1.1114216385698725   -0.15853671498977562     0.7860125042274345
                  203.0      5.100899999999996    -0.8877470097692992   -0.17263753882828325                    1.0
                  204.0      5.372399999999992    -0.7257327688950426   0.016035104517101217      0.889996543230568
                  205.0      5.643899999999995                    nan                    nan                    nan
                  206.0      5.915399999999991   -0.10414012486257462  -0.004178564069537316     0.4903603270612672
                  207.0      6.186899999999994   -0.02150240250305302    0.33128443148769193     0.3006622481870666
                  208.0       6.45839999999999    -0.2308107244350026     0.3349983159812133    0.28915764065759425
                  209.0     6.7298999999999936   -0.21834252337145443    0.14614212858392506     0.3097190589207098
                  210.0       7.00139999999999     -0.297726985406392      0.850558626340348    0.21365902785467802
                  211.0      7.272899999999993    -0.3959127670053988      0.656129629066811    0.22133238259703644
                  212.0      7.544399999999996    -0.3249952605577988     0.7862789794272906    0.22855755446282397
                  213.0      7.815899999999999                    nan                    nan                    nan
                  214.0      8.087399999999995     -0.725609424587816     1.6931466465780858    0.20216152840087748
                  215.0      8.358899999999991    -0.4413294781934525     2.1994434013613073     0.3549301612859781
                  216.0      8.630399999999995    -0.8046607943306867     1.9564417206181766    0.16019844250838755
                  217.0       8.90189999999999    -0.8540635513624508     2.1656940240288236    0.17081678523435695
                  218.0      9.173399999999994                    nan                    nan                    nan
                  219.0       9.44489999999999    -0.8820778405494636     1.3010512319728527    0.18759109560137313
                  220.0                 9.7164                    nan                    nan                    nan
                  221.0      9.987899999999996    -0.9478440903291556     1.0956173197238854    0.08424715751794976
#------------------------------------------------------------------------------------------------------------------
# experiment: sac6_and_rvs167_raw_trajectories
# path: /Users/andreapicco/Google Drive/RESEARCH/EvoCellBio/Protein_tracking/Data/Rvs167/24_degree/Sc/sac6_and_rvs167_raw_trajectories
# file: 34.W2data.txt
# protein: Rvs167-GFP
# date: 23/01/19
# notes: the trajectory of the target protein
# t_unit: s
# delta_t: 0.2715
# coord_unit: pxl
# intensity_normalisation: Absolute
# aligned_to: ../../../Fimbrin/24_degree/Sc/fim1_sc_24deg.txt
# alignment_angle: -0.5532261852098086 rad
# alignment_translation: [-55.66401536  18.21193342] pxl
# alignment_lag: -50.01360000000001 s
