#                frames                  t (s)                x (pxl)                y (pxl)                      f
                   25.0    -2.9984000000000117    -0.4092007979828054    -0.9404510063967564  0.0006299517925309824
                   26.0    -2.7269000000000077                    nan                    nan                    nan
                   27.0    -2.4554000000000116      -0.52477788952163    -0.5998099515245912     0.1138300569288534
                   28.0     -2.183900000000012     -0.503662117932933    -0.4284862289430009    0.07200971944658849
                   29.0    -1.9124000000000114    -0.7416495588505967    -0.3222156579674902    0.14699596944117513
                   30.0     -1.640900000000011    -0.6277570859946877    0.05428442256737753    0.13403448644604252
                   31.0    -1.3694000000000113    -0.7059608964083139    -0.1986891685084231     0.4182923209509441
                   32.0    -1.0979000000000116    -0.9421079051931116   -0.14772189752997633    0.24864573689868502
                   33.0     -0.826400000000012    -0.9859322460012265    0.10016577392372028     0.2816760648633811
                   34.0    -0.5549000000000124    -1.1444297746402157    0.10087900973994124     0.2424534873378357
                   35.0    -0.2834000000000074                    nan                    nan                    nan
                   36.0  -0.011900000000011346   -0.33657558466751425   -0.08673563834901188     0.3479142799177965
                   37.0     0.2595999999999883    -0.5730756735728306    0.03091611538539496     0.4395277926669081
                   38.0     0.5310999999999879   -0.47193179042270117    -0.3272273694782939    0.44817455561081837
                   39.0     0.8025999999999893     -0.606520387706297   -0.21363149597388542     0.5744663981848327
                   40.0      1.074099999999989   -0.32499419123004714    0.16356485690828038     0.6782595341421546
                   41.0     1.3455999999999886    -0.5889210529338555  -0.029798325877820275      0.622548942856943
                   42.0     1.6170999999999882     -0.520335405427943    0.03446000040131025     0.7679042393323777
                   43.0     1.8885999999999878   -0.31091276171719073   -0.05953735121138948     0.6146257416757916
                   44.0     2.1600999999999893     -0.171226783818625   -0.28104905317884743     0.6618274864856852
                   45.0      2.431599999999989   -0.20829260762039326    -0.0631067486602035     0.7644643227751725
                   46.0     2.7030999999999885    -0.6453450781342696    0.22613788023843995     0.6400253579748532
                   47.0      2.974599999999988   -0.24652950925627692     0.0390979937849778     0.7382695214265226
                   48.0     3.2460999999999878   -0.27858404140094706   -0.07410166721709288     0.6887405194920277
                   49.0      3.517599999999989   -0.23731119740565987    -0.0663744456891493     0.7222582189387294
                   50.0      3.789099999999989    -0.2537615096004373  -0.035991752758889106     0.8034430479939317
                   51.0      4.060599999999988  -0.040909146588674616    -0.1424393566789206     0.8223026253765635
                   52.0      4.332099999999988    0.11534005365676592   -0.16477767860907022     0.8817952593379277
                   53.0     4.6035999999999895   -0.06457334882125565    0.09493957757115368                    1.0
                   54.0      4.875099999999989     0.1153142652570125   -0.05394864342441963     0.8748537968836875
                   55.0      5.146599999999989   -0.08516815196414029    -0.1940066899449846     0.7802427662978789
                   56.0      5.418099999999988   0.013998021053353682    0.07098321179859113      0.973224550330683
                   57.0      5.689599999999988    0.09343446625273089    0.05363510371486768     0.8770847789855278
                   58.0      5.961099999999989   -0.04954741991431888   0.020231083505990455     0.9685530463715809
                   59.0      6.232599999999987   -0.04869999250533397    -0.1900195398742568     0.8180641924541037
                   60.0     6.5040999999999904    0.23177270325810184   -0.40980018354241565     0.7820553351520095
                   61.0       6.77559999999999    0.10022727072549742    -0.3190654905258583     0.9536947122359558
                   62.0       7.04709999999999    0.22236204916218583   -0.24846625259641542     0.6449463774773746
                   63.0      7.318599999999989     0.1914652694331096    -0.1422313674250546     0.6238524866772359
                   64.0      7.590099999999989   -0.06882510496890859    0.13893419128307016    0.49161457877012493
                   65.0      7.861599999999989    0.04241825215765971   0.024653038995353427      0.622420354072217
                   66.0      8.133099999999988   -0.06624802272148145    -0.1302582417329603     0.4522390938554882
                   67.0      8.404599999999988    0.26134492461223147     -0.762922867896151     0.5624503425758466
                   68.0      8.676099999999987     0.4012459469609979    -0.6192404068969921     0.5429035147712203
                   69.0       8.94759999999999    0.19570930849312163    -0.7661022729764113     0.4155233313689675
                   70.0       9.21909999999999    0.48293688545319924    -0.9050460593205685     0.2637106126056319
                   71.0       9.49059999999999     0.7401557287577276    -0.7686639540791589    0.32525966772791276
                   72.0       9.76209999999999     0.7862231577847183    -0.9410314735915222    0.08621878015881713
                   73.0     10.033599999999993                    nan                    nan                    nan
                   74.0     10.305099999999989       1.10929839885317    -0.8926484661554781                    0.0
#------------------------------------------------------------------------------------------------------------------
# experiment: sac6_and_rvs167_raw_trajectories
# path: /Users/andreapicco/Google Drive/RESEARCH/EvoCellBio/Protein_tracking/Data/Rvs167/24_degree/Sc/sac6_and_rvs167_raw_trajectories
# file: 35.W1data.txt
# protein: Sac6-mCherry
# date: 23/01/19
# notes: the trajectory of the reference protein
# t_unit: s
# delta_t: 0.2715
# coord_unit: pxl
# intensity_normalisation: Absolute
# aligned_to: ../../../Fimbrin/24_degree/Sc/fim1_sc_24deg.txt
# alignment_angle: -2.8742572047233867 rad
# alignment_translation: [73.95973485 66.47635074] pxl
# alignment_lag: -9.785900000000012 s
