#                frames                  t (s)                x (pxl)                y (pxl)                      f
                   35.0     -0.283400000000011     2.2112387029576865     1.3602135406651996                    0.0
                   36.0  -0.011900000000007793                    nan                    nan                    nan
                   37.0    0.25959999999999006                    nan                    nan                    nan
                   38.0     0.5310999999999879   0.030688411197274945    0.39839338739922425    0.25600776454768254
                   39.0     0.8025999999999893     -0.325324823890341  -0.040294952480536494     0.2572291083783374
                   40.0      1.074099999999989    -0.3288131848642166    0.07445051988207751     0.4881193473875985
                   41.0     1.3455999999999886    -0.3813432263092551    0.39092271817250435    0.44837416227470883
                   42.0     1.6170999999999882    -0.2939294842645239    0.08528639444161001     0.4840981304357256
                   43.0     1.8885999999999878   -0.38574535451944314    0.07341644476484532     0.6577668521048865
                   44.0     2.1600999999999893    -0.5409870280630003    0.03523618822569574     0.7739985251697141
                   45.0      2.431599999999989    -0.5371887372485986    0.11277797858348038     0.6892378055392892
                   46.0     2.7030999999999885    -0.4409592113937322    0.04649574369547338       0.82365204849589
                   47.0      2.974599999999988    -0.6878140634263303    0.12896439004042293     0.8726152617823759
                   48.0     3.2460999999999878      -0.41478061215048    0.11265317888351944     0.9718155594595181
                   49.0      3.517599999999989    -0.4044943519297135   0.015804171167019376                    1.0
                   50.0      3.789099999999989     -0.217455914695023   0.004547863477142755     0.9680129237425988
                   51.0       4.06059999999999                    nan                    nan                    nan
                   52.0      4.332099999999988     0.5705194333678918   0.017581355647024566     0.6130810533107772
                   53.0     4.6035999999999895      0.452908869116996    0.39191092003993333    0.44950197366994166
                   54.0      4.875099999999989     0.6350576101947496    0.06348240854194387     0.4429387755655324
                   55.0      5.146599999999989     0.9256544520536636    0.02714750853343162     0.2654870735463162
                   56.0      5.418099999999988     0.4748434387851148   0.028958484177508126     0.3990862965493309
                   57.0      5.689599999999988     0.7209532908618286    0.27259798729383533    0.38433528260350924
                   58.0      5.961099999999989     0.7677032291417589    0.45709316883207407    0.18839703027739824
                   59.0      6.232599999999987     0.5431837437253648      0.650452000604389    0.20615023206888325
#------------------------------------------------------------------------------------------------------------------
# experiment: sac6_and_rvs167_raw_trajectories
# path: /Users/andreapicco/Google Drive/RESEARCH/EvoCellBio/Protein_tracking/Data/Rvs167/24_degree/Sc/sac6_and_rvs167_raw_trajectories
# file: 35.W2data.txt
# protein: Rvs167-GFP
# date: 23/01/19
# notes: the trajectory of the target protein
# t_unit: s
# delta_t: 0.2715
# coord_unit: pxl
# intensity_normalisation: Absolute
# aligned_to: ../../../Fimbrin/24_degree/Sc/fim1_sc_24deg.txt
# alignment_angle: -2.8742572047233867 rad
# alignment_translation: [73.95973485 66.47635074] pxl
# alignment_lag: -9.785900000000012 s
