#                frames                  t (s)                x (pxl)                y (pxl)                      f
                  137.0      2.931199999999997     0.3899173954910644     0.4853548428719563    0.00941577721532851
                  138.0      3.202700000000007                    nan                    nan                    nan
                  139.0     3.4742000000000033                    nan                    nan                    nan
                  140.0     3.7456999999999994     0.3366351647690813     0.5512774143728478    0.06599412337490096
                  141.0      4.017199999999995    0.02370455738165944     0.7285654410247702    0.06527828403916153
                  142.0      4.288699999999999   -0.23797600284203568    0.42229608114362804    0.07981377567173041
                  143.0      4.560199999999995      0.479156072646969     0.5530920293906121    0.17772136172047873
                  144.0      4.831699999999998    0.09450080401891015     0.6365341917228307    0.20814222322618847
                  145.0      5.103199999999994  -0.008710569626220632     0.5779444034036629    0.32997831775189146
                  146.0      5.374699999999997    0.16662978373212312     0.5062929632982929     0.3060352631732065
                  147.0                 5.6462    0.16833111473935602     0.4036025298305077    0.41161805701729626
                  148.0      5.917699999999996    0.02409189267106271    0.44151857378464854     0.4052816039729683
                  149.0                 6.1892   0.021629580956837202    0.33750154418841305     0.4492145960718681
                  150.0      6.460699999999996    0.08040614614419539     0.4766513616866064     0.5179384237844166
                  151.0      6.732199999999999   0.032566781224520724     0.4090023021655469     0.5398036105135802
                  152.0      7.003699999999995   0.012310303937237421    0.46577645942844015     0.5106410723728457
                  153.0      7.275199999999998    0.14257253513561707    0.42915862317040876     0.5819388755692233
                  154.0      7.546699999999994    0.09236302374987204     0.4786472612139363     0.6456052804060588
                  155.0      7.818199999999997     0.1491917913518357    0.38117778891188436     0.6803776510270404
                  156.0                 8.0897      0.222459022871913     0.4770150901331789     0.6261282213197935
                  157.0      8.361200000000004                    nan                    nan                    nan
                  158.0                 8.6327   -0.05066677494257377    0.39592855928988513     0.7646736795990067
                  159.0      8.904199999999996     0.2031311596194847      0.489720137126227      0.810782255124934
                  160.0      9.175699999999999    0.03685233388899789     0.3818527007253891     0.7520055651673914
                  161.0      9.447199999999995    0.12433448640354428    0.29979633613726264     0.7996308712772676
                  162.0      9.718699999999998    0.19910719730630788     0.3297152787865514     0.8355631651632843
                  163.0      9.990199999999994    0.08361323608731297     0.3369788180028337     0.8644287916981119
                  164.0     10.261700000000005                    nan                    nan                    nan
                  165.0                10.5332    0.11912049780030642    0.42418357816329433     0.9544523906090367
                  166.0     10.804699999999997     0.2748311836310684     0.2814411091811593                    1.0
                  167.0                11.0762    0.14990757206937744    0.40466387873043175     0.9918706115694559
                  168.0     11.347699999999996    0.29774234983014125    0.27187678503366897     0.9708828114705425
                  169.0                11.6192     0.4998308931430948   -0.17499626227355236     0.8462032107524785
                  170.0     11.890700000000002                    nan                    nan                    nan
                  171.0     12.162199999999999     0.3832949922416127    -0.6596334677077635     0.6285404783785034
                  172.0     12.433699999999995     0.7052170578291701    -0.5490100574690473     0.6582412222832589
                  173.0     12.705199999999998     0.8958028812767616     -0.518488431090347     0.5017522063013713
                  174.0     12.976700000000001     0.9392425490374485    -0.5363425405568307     0.4773640410097391
                  175.0     13.248199999999997     0.7190621509688633      -0.76078155013262     0.3265456088741489
                  176.0                13.5197    0.18795719675545186    -1.0914743809438932    0.25660949193033616
                  177.0     13.791199999999996     0.3575602993751126   -0.36770030331553016    0.18867064031939815
                  178.0                14.0627   -0.16835920701537432    -0.9546268663087147    0.17892612120496487
                  179.0     14.334199999999996   -0.29893270776255676    -0.9583268311225197    0.06836599360998308
                  180.0     14.605699999999999     -0.357670119972024    -0.9339789914660912   0.019380883684236634
                  181.0     14.877199999999995    0.22855723619821688    -0.8876184367817217    0.04489423272735985
                  182.0     15.148700000000005                    nan                    nan                    nan
                  183.0     15.420200000000001                    nan                    nan                    nan
                  184.0     15.691699999999997    -0.5577677537922092     -1.483558383217229   0.003448281763124435
                  185.0     15.963200000000008                    nan                    nan                    nan
                  186.0     16.234700000000004                    nan                    nan                    nan
                  187.0                16.5062     0.7002144058947444    -0.7251118307810458                    0.0
#------------------------------------------------------------------------------------------------------------------
# experiment: sac6_and_rvs167_raw_trajectories
# path: /Users/andreapicco/Google Drive/RESEARCH/EvoCellBio/Protein_tracking/Data/Rvs167/24_degree/Sc/sac6_and_rvs167_raw_trajectories
# file: 37.W2data.txt
# protein: Rvs167-GFP
# date: 23/01/19
# notes: the trajectory of the target protein
# t_unit: s
# delta_t: 0.2715
# coord_unit: pxl
# intensity_normalisation: Absolute
# aligned_to: ../../../Fimbrin/24_degree/Sc/fim1_sc_24deg.txt
# alignment_angle: 0.5035073002047823 rad
# alignment_translation: [-17.00915706 -89.39273289] pxl
# alignment_lag: -34.264300000000006 s
