#                 frames                   t (s)                 x (pxl)                 y (pxl)                       f
                    42.0      -4.403900000000013   -0.004878015277341774      0.6095423364690333                     0.0
                    43.0      -4.132400000000013    -0.30945251664464024    -0.16567372105420475     0.08727378434577289
                    44.0     -3.8609000000000115     -0.6824527099160846      0.2621545652821169     0.20479172290232345
                    45.0      -3.589400000000012    -0.48546935254712764     0.44767395976059277      0.1571490863233046
                    46.0     -3.3179000000000123     -0.4995670174493796     -0.1324255450326035     0.30753421493893074
                    47.0     -3.0464000000000127     -0.6599367716743245     0.07169136342388072     0.47885066111944735
                    48.0      -2.774900000000013     -0.6373298475304381     0.08394398227672184      0.3318004746889753
                    49.0     -2.5034000000000116    -0.27292223164229057    0.006352116957557996       0.190758692990816
                    50.0      -2.231900000000012     -0.3207892385007227      0.4914822489267152      0.2263624849090688
                    51.0     -1.9604000000000124     -0.5685595102087149     0.11337203314067779       0.548760287152506
                    52.0     -1.6889000000000127    -0.46084583076554964      0.1423451494870136      0.6276166265724974
                    53.0     -1.4174000000000113     -0.5372962076961585     -0.2659492597364874      0.5508379518963195
                    54.0     -1.1459000000000117      -0.707542163831846    0.005942930510755673      0.4500341333663297
                    55.0     -0.8744000000000121     -0.2936622105128919    -0.08378772989412653      0.6139751451462607
                    56.0     -0.6029000000000124    -0.16779232696821822    -0.20205465019078872       0.710436758775199
                    57.0     -0.3314000000000128    -0.23922273887415457     0.15054859940137533      0.6915051352600853
                    58.0    -0.05990000000001139    -0.17846143651865987    -0.17199348508692935      0.7365789764736145
                    59.0     0.21159999999998647     -0.2490955806264381    -0.12990665760897002      0.6236833440613663
                    60.0     0.48309999999998965     -0.3065498489439875    0.040113788355924385      0.6044419565389656
                    61.0      0.7545999999999893     -0.2587954724471331     0.13042809979323522     0.41768816044673823
                    62.0       1.026099999999989     -0.2252579919360187     0.06261599416329489     0.46971876733417783
                    63.0       1.297599999999992                     nan                     nan                     nan
                    64.0      1.5690999999999882     -0.5374882419658888    -0.20010081216298659      0.5483988251850427
                    65.0      1.8405999999999878     -0.3538363401332987    -0.21715477133024308      0.6629093832221474
                    66.0      2.1120999999999874    -0.19682596813872522   -0.009838367463800068      0.7407461710668551
                    67.0       2.383599999999987      -0.611976507090958     0.04417155648245341      0.7275131882767671
                    68.0      2.6550999999999867    -0.18569582500506954    -0.29982003948087765      0.5951867504060622
                    69.0        2.92659999999999    -0.32184352148939155     0.22334346325895638      0.7303353883978759
                    70.0      3.1980999999999895    -0.10716175926475557     0.28209984138185007      0.5862874974415867
                    71.0       3.469599999999989    -0.28333834418310744     0.04398049221529732      0.6364722328984631
                    72.0      3.7410999999999888    0.059020846496267154    -0.28869929376418213      0.7562691192404976
                    73.0       4.012599999999988   -0.029191117857308768    -0.18077921719880408       0.761023636561645
                    74.0       4.284099999999988     0.11973996253377095    -0.06237313876299311      0.7675396983127396
                    75.0       4.555599999999988     -0.1802651554470458    -0.13980355200176575      0.6601189646339339
                    76.0       4.827099999999987    -0.17831378311382196    -0.27318208290543566      0.6852132392543459
                    77.0       5.098599999999987    -0.31626450646588466   -0.018416152625022164      0.9733077499056088
                    78.0        5.37009999999999     -0.3264229489135886     0.21345741872806911      0.8731717673201937
                    79.0        5.64159999999999     -0.2542799881016151    -0.08653952402681853      0.8652941846998616
                    80.0       5.913099999999989   -0.005777575776107824     0.03827795845224102                     1.0
                    81.0       6.184599999999989     -0.2404724107924281    -0.11256178332247657      0.6843771730623116
                    82.0       6.456099999999989     -0.2988902065240566    0.047254251786199575      0.9060181934444445
                    83.0       6.727599999999988    -0.11026961716513028    -0.10193319128757139      0.6381973345040238
                    84.0       6.999099999999988    -0.10392276207401352     0.13904441308150695      0.7356801947233332
                    85.0      7.2705999999999875    -0.04882099279299723     0.21043371933320998      0.6983741839032045
                    86.0       7.542099999999987     -0.2569227177939837    -0.15464473992672367      0.6909881556583205
                    87.0        7.81359999999999  -0.0018637399063976545     -0.4274705207227214      0.7039452747428768
                    88.0        8.08509999999999     -0.2713904771316251     -0.8448239820701957      0.5765920111396391
                    89.0        8.35659999999999    -0.03893210952010406     -1.1501459476137796      0.5530079949624153
                    90.0        8.62809999999999     0.22791364072298848     -0.8782474423104389      0.3631040133295987
                    91.0       8.899599999999989      0.4711768781499899     -0.9620434037974377     0.19700778986558956
                    92.0       9.171099999999988     0.12173848534267506     -0.8076545284169754     0.25102664945096337
                    93.0       9.442599999999988      0.6155913386864711     -0.9482718175431586      0.2777553423697413
                    94.0       9.714099999999988       1.566755966469671     -1.0943754915526398      0.4789998224471696
                    95.0       9.985599999999991                     nan                     nan                     nan
                    96.0      10.257099999999987       3.409924787315447     -0.9191041533540556      0.8371421028611431
                    97.0       10.52859999999999       4.107460453667713     -1.0320627646925686      0.6836521303585253
                    98.0      10.800099999999993                     nan                     nan                     nan
                    99.0       11.07159999999999       4.600656729988145     -2.0039010932851653      0.6746045635738714
                   100.0      11.343099999999989      4.3662335042113725     -2.0650619758933004        0.47872226372655
                   101.0      11.614599999999989       4.253672370206246     -2.1922908954182247      0.5677618300399897
                   102.0      11.886099999999988       3.804028188526182      -1.538586833847333      0.7595154968873167
                   103.0      12.157599999999988                     nan                     nan                     nan
                   104.0      12.429099999999988       4.463314247998554     -1.3661613707063225      0.4615725248224365
                   105.0      12.700599999999987       4.568579219565358      -2.238607308477853      0.2791905963952962
#-----------------------------------------------------------------------------------------------------------------------
# experiment: sac6_and_rvs167_raw_trajectories
# path: /Users/andreapicco/Google Drive/RESEARCH/EvoCellBio/Protein_tracking/Data/Rvs167/24_degree/Sc/sac6_and_rvs167_raw_trajectories
# file: 38.W1data.txt
# protein: Sac6-mCherry
# date: 23/01/19
# notes: the trajectory of the reference protein
# t_unit: s
# delta_t: 0.2715
# coord_unit: pxl
# intensity_normalisation: Absolute
# aligned_to: ../../../Fimbrin/24_degree/Sc/fim1_sc_24deg.txt
# alignment_angle: 0.35549793680658925 rad
# alignment_translation: [-42.72865683 -86.63747447] pxl
# alignment_lag: -15.806900000000013 s
