#                frames                  t (s)                x (pxl)                y (pxl)                      f
                  174.0     1.0740999999999943    -0.5494478346107172   -0.21811909678298136                    0.0
                  175.0     1.3455999999999975                    nan                    nan                    nan
                  176.0     1.6170999999999935    -0.8089704269138167     -0.736994034705674   0.008709278688011598
                  177.0     1.8885999999999896    -0.5989711825798878     -0.440314972538868    0.13282967909192994
                  178.0      2.160099999999993     -0.808543578293424   -0.13787714619287783    0.07045390263834746
                  179.0      2.431599999999989    -0.8641836358857233   -0.06282523293194231     0.2547215478882749
                  180.0      2.703099999999992    -0.6654569694165673  -0.009982868118683541     0.1401071900113256
                  181.0      2.974599999999988    -0.7184289386789686   -0.19854881876052133     0.3444383597256339
                  182.0     3.2460999999999913   -0.49566585315383804   -0.26945292205024884     0.5068373650947631
                  183.0     3.5175999999999945    -0.6492541740962423   -0.14972646484427798     0.5532227412286772
                  184.0     3.7890999999999906     -0.531329386400472  -0.012975666016959764     0.5203084511127614
                  185.0      4.060599999999994    -0.7328687329617622   -0.23351519034910595     0.5678550323098568
                  186.0       4.33209999999999    -0.7942416460470412   -0.07238239267765323     0.5468657212217205
                  187.0      4.603599999999993    -0.6701781631575585   -0.06373567432132887     0.6325582738869678
                  188.0      4.875099999999989    -0.7078056137381594   -0.18942931125178575     0.6419526250479923
                  189.0      5.146599999999992    -0.6223689081037094  -0.058298716422306995       0.72795329182619
                  190.0      5.418099999999988    -0.6777816147662747   -0.03285809712308563     0.6908722397609227
                  191.0     5.6895999999999916    -0.6893574630326924   -0.07525687600777431     0.8116650077449779
                  192.0      5.961099999999988    -0.5857300961389313   -0.14102768443116176     0.8106802461542905
                  193.0      6.232599999999991    -0.5402312095694697   -0.16833536483318667     0.8525024041325806
                  194.0      6.504099999999994    -0.4786437766235281   0.016015743045585396     0.8795868382316656
                  195.0       6.77559999999999    -0.5755025205207716   0.025411184049051627     0.9517591991921633
                  196.0      7.047099999999993    -0.5906342168662349   -0.07922783147913037     0.8416158659511037
                  197.0      7.318599999999989    -0.4138188242626768    0.06400579254975725     0.8541267432217905
                  198.0     7.5900999999999925    -0.6343970569974005    0.04293719058795631                    1.0
                  199.0      7.861599999999989   -0.43844103410935986   0.013839886814224656     0.9171724271568891
                  200.0      8.133099999999992   -0.08941071499120312   -0.17282606335419715     0.7336745857610358
                  201.0      8.404600000000002                    nan                    nan                    nan
                  202.0      8.676099999999998                    nan                    nan                    nan
                  203.0      8.947599999999994     0.5159162794455057    0.16077755611090794    0.11092757994417839
                  204.0       9.21909999999999     0.8566814796350428     0.4923415421012294   0.031145041107959067
#------------------------------------------------------------------------------------------------------------------
# experiment: sac6_and_rvs167_raw_trajectories
# path: /Users/andreapicco/Google Drive/RESEARCH/EvoCellBio/Protein_tracking/Data/Rvs167/24_degree/Sc/sac6_and_rvs167_raw_trajectories
# file: 40.W2data.txt
# protein: Rvs167-GFP
# date: 23/01/19
# notes: the trajectory of the target protein
# t_unit: s
# delta_t: 0.2715
# coord_unit: pxl
# intensity_normalisation: Absolute
# aligned_to: ../../../Fimbrin/24_degree/Sc/fim1_sc_24deg.txt
# alignment_angle: -0.5891557771541763 rad
# alignment_translation: [-66.87525312 -16.11413016] pxl
# alignment_lag: -46.16690000000001 s
