#                frames                  t (s)                x (pxl)                y (pxl)                      f
                  142.0      45.35500000000008    -0.5127542753169649     -0.306148189627109   0.010430406195535364
                  143.0      45.62650000000008    -0.8382541088443745   -0.10277645966045412    0.04472614028220004
                  144.0      45.89800000000008    -0.7644460244377669    -0.5552386596907155    0.19195394489145093
                  145.0      46.16950000000008    -1.2695160478646272    -0.6420967945751528     0.2750175782857057
                  146.0      46.44100000000008    -1.0639936820527183   -0.32466420193053835     0.2689633548843947
                  147.0     46.712500000000084    -0.9605672147573969    -0.5777052332748838     0.3143097219140135
                  148.0      46.98400000000008    -1.0001026495183396    -0.5481867316824491     0.5411400453295367
                  149.0      47.25550000000008    -1.1085530142407194    -0.6445828781592908    0.42073813839720947
                  150.0      47.52700000000008    -1.1413452486103708    -0.5689664709909792    0.48586132353271183
                  151.0      47.79850000000008    -1.3268766987556475    -0.3964671943345408     0.5246438838785926
                  152.0      48.07000000000008    -0.9550956361350345    -0.5117941867547486     0.7047486928487544
                  153.0      48.34150000000008     -1.027473390977498   -0.32228654241298926     0.7691597080757886
                  154.0      48.61300000000008    -1.0647143881627628    -0.4613198007170567      0.833630564275438
                  155.0      48.88450000000008     -1.032024155976842    -0.3723927887992531     0.7702384039415253
                  156.0     49.156000000000084    -1.0559287668068578   -0.20068134839394247     0.7835548903788182
                  157.0      49.42750000000009                    nan                    nan                    nan
                  158.0      49.69900000000008    -0.8586586737473638   -0.47194407470424693                    1.0
                  159.0      49.97050000000008    -0.6914674171752324   -0.40943465497542064     0.9013530916589164
                  160.0      50.24200000000008                    nan                    nan                    nan
                  161.0      50.51350000000008    -0.7511278304943474   -0.04695931116759766    0.35814323435470236
                  162.0      50.78500000000008    -0.2284594749362654   -0.25523977022032796      0.488794154534325
                  163.0      51.05650000000008    0.22138538889944925   -0.39840277251710177    0.45245759394409363
                  164.0      51.32800000000008     0.4486336548651835     -0.316574057700322     0.4343391811261572
                  165.0     51.599500000000084                    nan                    nan                    nan
                  166.0      51.87100000000008    -0.0952549968195413  -0.025787093490137636     0.5396848500110956
                  167.0     52.142500000000084     0.3819350524705811   -0.17445529373648583     0.3906502843692886
                  168.0      52.41400000000008   -0.12851898192352706   -0.23050844155867622    0.35915679082837365
                  169.0      52.68550000000008    0.37776756053349914   -0.04643750172321148    0.49708431094366723
                  170.0      52.95700000000008     0.5727157424000993    -0.2541335939129894     0.3397757958226014
                  171.0      53.22850000000008     0.1535499395674762   -0.24885268673001093     0.4269017585765827
                  172.0     53.500000000000085                    nan                    nan                    nan
                  173.0      53.77150000000008      0.952857499716707    -0.4850625742797803     0.1212203569015342
                  174.0     54.043000000000085                    nan                    nan                    nan
                  175.0      54.31450000000008     1.2038193964578667    -1.1803327492456575                    0.0
#------------------------------------------------------------------------------------------------------------------
# experiment: sac6_and_rvs167_raw_trajectories
# path: /Users/andreapicco/Google Drive/RESEARCH/EvoCellBio/Protein_tracking/Data/Rvs167/24_degree/Sc/sac6_and_rvs167_raw_trajectories
# file: 42.W2data.txt
# protein: Rvs167-GFP
# date: 23/01/19
# notes: the trajectory of the target protein
# t_unit: s
# delta_t: 0.2715
# coord_unit: pxl
# intensity_normalisation: Absolute
# aligned_to: ../../../Fimbrin/24_degree/Sc/fim1_sc_24deg.txt
# alignment_angle: 1.5213173246508134 rad
# alignment_translation: [ 56.0830767  -50.20857736] pxl
# alignment_lag: 6.802000000000077 s
