#                 frames                   t (s)                 x (pxl)                 y (pxl)                       f
                     0.0      -4.872400000000014    -0.28579955329225015    -0.21515434052972182      0.2761484141190908
                     1.0      -4.600900000000014     0.04772115229694407    -0.49624990623162546                     0.0
                     2.0       -4.32940000000001                     nan                     nan                     nan
                     3.0      -4.057900000000014     -0.6511139007551137     0.04096760099771757     0.12558261343281582
                     4.0     -3.7864000000000138   -0.004276690651323634      0.1527419214524457     0.20069374087547603
                     5.0      -3.514900000000014     -0.0299763709334826     0.37237924765044284    0.058521773162948564
                     6.0       -3.24340000000001                     nan                     nan                     nan
                     7.0      -2.971900000000014      0.0829089965170553   -0.008057943488338992      0.2247891917807979
                     8.0      -2.700400000000014    -0.24948367846961617    -0.15416951113857635     0.11862129062399933
                     9.0      -2.428900000000014    -0.24325465992865958     0.05573313954030823     0.22628527833334197
                    10.0     -2.1574000000000138    -0.09193910182084153     0.03450111023255431      0.2673655403147206
                    11.0     -1.8859000000000137     -0.3727224443052535    -0.23578466350201666     0.37391081690991923
                    12.0      -1.614400000000014    -0.05453739299989735  -0.0036043469917501625      0.6519344428287877
                    13.0      -1.342900000000014    -0.31511623560430024    -0.11223210095431568      0.5539778112574534
                    14.0      -1.071400000000014    -0.22069636835369977    -0.10601121087483989     0.39299714839487115
                    15.0     -0.7999000000000134    -0.20724891495739683     -0.2782315867139431      0.8198309334705183
                    16.0     -0.5284000000000137    -0.22280181102440366    0.045071019877667595      0.8103335543925159
                    17.0     -0.2569000000000141     -0.4545250781823782    -0.13850706034605764       0.652259324002186
                    18.0    0.014599999999986402     -0.5851413663036382     0.06504552312667045      0.4920409945213485
                    19.0     0.28609999999998603     -0.3462321422760368    -0.08076673750505847      0.6394892191361425
                    20.0      0.5575999999999866    -0.20652098501490457    -0.06270790194588471      0.6568210756308207
                    21.0      0.8290999999999862    -0.36082530918636735     0.07281918817997735      0.6290381942439454
                    22.0      1.1005999999999867    -0.27170082679824503     0.04272081279113138      0.9152935041846677
                    23.0      1.3720999999999863    -0.36113092479288866    0.003235061074008172     0.49027193779079625
                    24.0       1.643599999999986    -0.44121064467749704     0.04026527058196905      0.9424750346024696
                    25.0      1.9150999999999865     -0.4188242326579257     0.06622580481933937      0.7060811106386626
                    26.0       2.186599999999986    -0.20142855052426967    -0.12228478786616392      0.5462448227531141
                    27.0      2.4580999999999866     -0.5933511952785011    0.016460511145567125      0.8072031463895901
                    28.0      2.7295999999999863    -0.39170939831736007      0.1617941677784529       0.729523882849132
                    29.0       3.001099999999987    -0.09310319882459339     -0.3539108043931094     0.31191450667347925
                    30.0      3.2725999999999873    -0.15514325612161883     -0.2010511421810719     0.42850018635464066
                    31.0       3.544099999999987     -0.3186323120219541    -0.11588883947726458      0.8142408775174643
                    32.0      3.8155999999999866    -0.20107914082228717    -0.11316113038354558      0.4480449677539394
                    33.0       4.087099999999986    -0.03615590032159588    0.049827063497943413      0.8722003787752854
                    34.0       4.358599999999986    0.005164233016962783    -0.20337918343503247      0.7492512276367139
                    35.0       4.630099999999987  0.00011297525117015539      0.1119017594270133      0.7527753426271512
                    36.0       4.901599999999987      -0.082751234648903   -0.002582885585468375      0.8283431701753248
                    37.0      5.1730999999999865     0.08334822720356527     0.06677706306878406      0.9091516751794865
                    38.0       5.444599999999986    -0.16947220916161854      0.2078634573990712      0.9488665030012137
                    39.0      5.7160999999999875     -0.3244314580167895     -0.3161887348434931      0.8397968355290518
                    40.0       5.987599999999987     -0.3048123864334116   -0.013079506191189694                     1.0
                    41.0       6.259099999999987     -0.4268642831490652    -0.14995332642394033      0.6647348777146096
                    42.0       6.530599999999986    -0.18608409240636092    0.026778071086226873      0.9455331171736154
                    43.0       6.802099999999986     -0.0691284982582161     0.14721994045673625      0.7309803070681195
                    44.0      7.0735999999999875      -0.279505482472608     0.10078033644404627      0.6111889776041967
                    45.0       7.345099999999987    -0.18113008370502826     -0.3591938829697199      0.5997860567066382
                    46.0       7.616599999999987    -0.04585815424087514     -0.5296827624048603     0.41788409616249417
                    47.0        7.88809999999999                     nan                     nan                     nan
                    48.0       8.159599999999987     0.13631750717943447     -0.3574414476221648     0.49365373499611825
                    49.0       8.431099999999986    -0.19751793701938425    -0.36459909783572186       0.627113987796833
                    50.0       8.702599999999986     -0.4696621771732481     -0.3617933544264247      0.5890154000675426
                    51.0       8.974099999999986    -0.14623661566968593   -0.033741544103548904      0.5920769822563552
                    52.0       9.245599999999985    -0.12497592316331918     -0.2926142148205457       0.505175642894347
                    53.0       9.517099999999989     -0.2527186200342513      -0.207149685148039      0.6497885939294463
                    54.0       9.788599999999988     -0.5828673960539845      0.0634471979708735      0.7459207581571712
                    55.0      10.060099999999988     -0.1481301650969442    -0.19539224835988023      0.5748139515757903
                    56.0      10.331599999999987    -0.08317561703946552     0.12156980158877673      0.7356680449327576
                    57.0      10.603099999999987    -0.07938238124143737      0.2699682601224822      0.6320665300649236
                    58.0      10.874599999999987     0.19790170103651405     0.44008232034464356      0.7298715115373644
                    59.0      11.146099999999986     0.11595589047342258      0.3876257353990269      0.3679299703174094
                    60.0       11.41759999999999    -0.49175419535355047      0.4225995129211242      0.5016421955901318
                    61.0       11.68909999999999     0.06283426035346196      0.5154697781166817     0.26714098151443616
                    62.0      11.960599999999989      0.4433264622594706      0.4519001294333407      0.5084781154325556
                    63.0      12.232099999999988    -0.16080178303330683      0.5462637666908279     0.49053849200308186
                    64.0      12.503599999999988       0.567445440637222      0.6725496030231284     0.19792379349222758
                    65.0      12.775099999999988     0.19417582898685026      0.8255740105514207      0.6043618068059396
                    66.0       13.04659999999999                     nan                     nan                     nan
                    67.0      13.318099999999987      0.5242941455532346      0.7442971434588515     0.17815328675342218
                    68.0      13.589599999999987     0.05023344541852026      0.9898409778505908     0.20238755582619256
                    69.0       13.86109999999999      0.3522847791338961      0.7565918220648484       0.177124982429003
                    70.0       14.13259999999999      0.3578421268106098      1.3337790282742503      0.6326428004407184
                    71.0      14.404099999999993                     nan                     nan                     nan
                    72.0      14.675599999999989     0.22283671695885943       1.136034204949425     0.27382233490991104
                    73.0      14.947099999999988    -0.08362300942448542      0.8629354209278688     0.25342248026069814
                    74.0      15.218599999999988    -0.20620683452386146      0.8448390484459196     0.28752042172725956
#-----------------------------------------------------------------------------------------------------------------------
# experiment: sac6_and_rvs167_raw_trajectories
# path: /Users/andreapicco/Google Drive/RESEARCH/EvoCellBio/Protein_tracking/Data/Rvs167/24_degree/Sc/sac6_and_rvs167_raw_trajectories
# file: 45.W1data.txt
# protein: Sac6-mCherry
# date: 23/01/19
# notes: the trajectory of the reference protein
# t_unit: s
# delta_t: 0.2715
# coord_unit: pxl
# intensity_normalisation: Absolute
# aligned_to: ../../../Fimbrin/24_degree/Sc/fim1_sc_24deg.txt
# alignment_angle: -1.9761777918259078 rad
# alignment_translation: [-49.15744012 110.8418036 ] pxl
# alignment_lag: -4.872400000000014 s
