#               frames                 t (s)               x (pxl)               y (pxl)                     f
                 127.0     5.655799999999992    0.0983190728010861   -0.7255962060435053   0.26536427557107617
                 128.0     5.927299999999995   0.10502175690477245   -0.9450053921839441   0.22800526526823775
                 129.0    6.1987999999999985   -0.3781918661528003   -0.7007498008854753    0.2815265630160788
                 130.0     6.470299999999995    0.2922228585446227  -0.31470557762358453    0.2590400261268561
                 131.0     6.741799999999998   0.03221129776987297   -0.2643444768365413     0.177086678865659
                 132.0     7.013299999999994   0.25337091276277945   -0.6878783390638716    0.2204271091209459
                 133.0     7.284799999999997    0.2781241746804106   -0.4691476482465191   0.37710902120327744
                 134.0     7.556299999999993  -0.08182061790043704  -0.44302565548321127   0.42051813134843713
                 135.0     7.827799999999996    0.2121040953379456   -0.5312860693771881     0.439945705839757
                 136.0     8.099299999999992  -0.21534489990595418   -0.3502515440678451    0.4297776623930297
                 137.0     8.370799999999996    0.1367864222461712   -0.4713125671446079    0.6421421514132242
                 138.0     8.642299999999999   0.07669221209647858  -0.43942257674818563    0.6499727987739073
                 139.0     8.913799999999995   0.14764017998624368   -0.5670539704971844      0.73634189248149
                 140.0     9.185299999999998   0.04380848244921154   -0.6161924212621273    0.7517341672192881
                 141.0     9.456799999999994   0.14164355413256757   -0.4236749942127602    0.8176295292748743
                 142.0     9.728299999999997   0.09089749256856194   -0.5534072095401115    0.7897016072519125
                 143.0     9.999799999999993   0.07119751872128788    -0.492341099532851    0.5368091437156619
                 144.0    10.271299999999997   0.06877142322819552   -0.5905925901559499   0.49860859102778465
                 145.0    10.542799999999993   0.17665427549937718  -0.41392346128836266    0.5357892046042315
                 146.0    10.814299999999996     0.042153256765463   -0.4986208779876904    0.6199055409282274
                 147.0    11.085799999999999   0.15571083095027305   -0.3717527435399006    0.5863481477660657
                 148.0    11.357300000000002                   nan                   nan                   nan
                 149.0    11.628799999999998   0.08579980502353735  -0.48705920945953096    0.7861576109429578
                 150.0    11.900299999999994   0.07862838804570416  -0.43848696801927645                   1.0
                 151.0    12.171799999999998   0.36784114650273025   -0.4934851264855382    0.7786142222087966
                 152.0    12.443299999999994    0.2483857898270294   -0.4606678561315931    0.8835271711608298
                 153.0    12.714799999999997  0.008939550639890825   -0.4916415801430247    0.7322376278592992
                 154.0    12.986299999999993   0.07184189891381365   -0.5025962084629327    0.7440574084085275
                 155.0    13.257799999999996   0.22148723128448822   -0.5002267398157016    0.8329505593136343
                 156.0               13.5293   0.01206499909490688   -0.5457390939487112    0.8141114660363696
                 157.0    13.800800000000002                   nan                   nan                   nan
                 158.0    14.072299999999998                   nan                   nan                   nan
                 159.0    14.343799999999995  -0.11020158104731692  -0.45552879956203185   0.28447409870468593
                 160.0    14.615299999999998    0.4260282046122761   -0.3631754898136563    0.3534446669495557
                 161.0    14.886799999999994  0.011168363348101451   -0.4514043503314298    0.4946530853371856
                 162.0    15.158299999999997  -0.07341435925492945   -0.3935805479741106    0.6583098534553539
                 163.0    15.429799999999993   0.13630357258332637   -0.2856064866701047    0.4325567756131105
                 164.0    15.701299999999996  -0.10440516675885547  -0.23053737252892859    0.5012796972841237
                 165.0               15.9728   -0.0796833818687297   -0.2542093602326503   0.40768981083962447
                 166.0    16.244300000000003                   nan                   nan                   nan
                 167.0               16.5158  -0.17782294710395163   -0.5094645590601061   0.14739644796728904
                 168.0    16.787299999999995  0.018608571482335634  -0.34835953472230585   0.30445481703933824
                 169.0    17.058799999999998   0.12929684432170419   -0.4893969584396842   0.08724568848454835
                 170.0    17.330299999999994   -0.1126709550476086   -0.2648348384698096   0.15059675984808352
                 171.0    17.601799999999997   -0.5861909699547603   0.21644145623245947                   0.0
#-------------------------------------------------------------------------------------------------------------
# experiment: sac6_and_rvs167_raw_trajectories
# path: /Users/andreapicco/Google Drive/RESEARCH/EvoCellBio/Protein_tracking/Data/Rvs167/24_degree/Sc/sac6_and_rvs167_raw_trajectories
# file: 46.W2data.txt
# protein: Rvs167-GFP
# date: 23/01/19
# notes: the trajectory of the target protein
# t_unit: s
# delta_t: 0.2715
# coord_unit: pxl
# intensity_normalisation: Absolute
# aligned_to: ../../../Fimbrin/24_degree/Sc/fim1_sc_24deg.txt
# alignment_angle: 0.8896586353710442 rad
# alignment_translation: [ 27.36864053 -99.63484804] pxl
# alignment_lag: -28.824700000000007 s
