#                 frames                   t (s)                 x (pxl)                 y (pxl)                       f
                     0.0      2.7172999999999954     -0.7679987777982475    -0.16960604460509643     0.39645662254361247
                     1.0      2.9887999999999955     -0.6743907594916934       0.169197416399534     0.42730777873105363
                     2.0      3.2602999999999955     -0.5721821538944312    -0.12560915904590075      0.6094933509008457
                     3.0       3.531799999999995      -0.354782609379761    -0.06801551420718255      0.3738134268905503
                     4.0      3.8032999999999957    -0.04551125512535492     0.09171076278772006      0.3438386035870409
                     5.0       4.074799999999995    -0.13930679240358046     -0.1956680092374441      0.2998590513543327
                     6.0       4.346299999999996                     nan                     nan                     nan
                     7.0      4.6177999999999955    -0.15857267719483303      0.1662917471847365      0.4938858418106795
                     8.0       4.889299999999996                     nan                     nan                     nan
                     9.0       5.160799999999996      0.2677417020417252      -0.396117020237277      0.8272406238509622
                    10.0       5.432299999999996    0.006587495779427854     0.09371456271804135      0.9578520141357192
                    11.0       5.703799999999996     0.15046549983912172      0.1438102525605771      0.9777699472974629
                    12.0       5.975299999999995     0.45208872062780614   -0.048899251579875624                     1.0
                    13.0       6.246799999999996                     nan                     nan                     nan
                    14.0      6.5182999999999955      0.1372404897950048    -0.09127633810621205      0.6991397536462802
                    15.0       6.789799999999996     0.23296431057399047     -0.2739672369722257     0.49345022878620753
                    16.0       7.061299999999996      0.5722068581972692     0.06599144191546458      0.4916117681905463
                    17.0       7.332799999999995      0.8061533933772438     0.02634208063074084     0.39571459941986353
                    18.0       7.604299999999996                     nan                     nan                     nan
                    19.0      7.8757999999999955     0.37170317399645825     0.27142937134161826      0.5345147996077951
                    20.0       8.147299999999996                     nan                     nan                     nan
                    21.0       8.418799999999996      0.6151129203352639     -0.1054159228790823      0.7716866854598193
                    22.0       8.690299999999997      0.7621575120509405    -0.06968714915020513      0.6268198206479553
                    23.0       8.961799999999997     0.33680384558603293    -0.02699446496590241      0.7435807084201494
                    24.0       9.233299999999996      0.5678107958456025    -0.15213039647949955      0.6606760938840543
                    25.0       9.504799999999996      1.0298600305163461     -0.1204195044993952      0.7671352187768109
                    26.0       9.776299999999996      0.9828233648940099     -0.1779828094004614      0.5702120868570496
                    27.0      10.047799999999995      0.7975106320608987     -0.2080472134012652     0.41275968255913714
                    28.0      10.319299999999995       1.016345687950647    -0.21410984762512442     0.40888359480328473
                    29.0      10.590799999999996      0.7226970683370268     0.18585762350598145      0.3579168709400662
                    30.0      10.862299999999998                     nan                     nan                     nan
                    31.0      11.133799999999997      1.2563116799059486  -0.0029790500353215066      0.4887202782203702
                    32.0      11.405299999999997      1.1911156663741451     0.46595304680659666      0.5872704477672919
                    33.0      11.676799999999997                     nan                     nan                     nan
                    34.0      11.948299999999996      0.8248885060442603     0.46319972432072376     0.42981625607713364
                    35.0      12.219799999999996                     nan                     nan                     nan
                    36.0      12.491299999999995      0.8947356061172727     0.37468020426220505     0.05423203415451242
                    37.0      12.762799999999995      0.8645968207077317     0.41554708742005886    0.040075887567920944
                    38.0      13.034299999999998                     nan                     nan                     nan
                    39.0      13.305799999999998      0.6338517062958502     0.17293615885325408                     0.0
                    40.0      13.577299999999997      1.0328687868782325    -0.16415135761763366     0.16538255300894725
                    41.0      13.848799999999997                     nan                     nan                     nan
                    42.0      14.120299999999997                     nan                     nan                     nan
                    43.0      14.391799999999996    -0.25336956985370307     -0.5257940383420419     0.10288331903419538
                    44.0      14.663299999999996                     nan                     nan                     nan
                    45.0      14.934799999999996      0.1527823916640756     -1.2780188517052125     0.09527949707889041
#-----------------------------------------------------------------------------------------------------------------------
# experiment: sac6_and_rvs167_raw_trajectories
# path: /Users/andreapicco/Google Drive/RESEARCH/EvoCellBio/Protein_tracking/Data/Rvs167/24_degree/Sc/sac6_and_rvs167_raw_trajectories
# file: 49.W1data.txt
# protein: Sac6-mCherry
# date: 23/01/19
# notes: the trajectory of the reference protein
# t_unit: s
# delta_t: 0.2715
# coord_unit: pxl
# intensity_normalisation: Absolute
# aligned_to: ../../../Fimbrin/24_degree/Sc/fim1_sc_24deg.txt
# alignment_angle: -2.9903620055910416 rad
# alignment_translation: [57.46565543 47.75351854] pxl
# alignment_lag: 2.7172999999999954 s
