#                frames                  t (s)                x (pxl)                y (pxl)                      f
                  429.0     37.440000000000126    -0.7601949837879403    -0.9574071766796557    0.06876138108754477
                  430.0     37.711500000000186                    nan                    nan                    nan
                  431.0      37.98300000000016                    nan                    nan                    nan
                  432.0     38.254500000000135    -0.9657732937309191   -0.43454209371944685                    0.0
                  433.0      38.52600000000015                    nan                    nan                    nan
                  434.0      38.79750000000013    -0.6593498730594973    -0.4054368754240869    0.24770357586044603
                  435.0      39.06900000000013    -0.7152153739968412   -0.29232591816078823   0.031647149438731266
                  436.0     39.340500000000134    -0.6903130466260734     -0.533370722719031    0.14678334212916092
                  437.0      39.61200000000014    -0.6641458056483458    -0.5152213206183092    0.45170377554950164
                  438.0     39.883500000000126    -0.5850344171569049    -0.4230261769449264     0.4281695883077305
                  439.0      40.15500000000013   -0.36790968102894794   -0.42574559845600746     0.3165529152224871
                  440.0      40.42650000000013    -0.7131704260226144    -0.6017104263262496    0.30218897240962894
                  441.0     40.698000000000135    -0.7108547614908929   -0.40379339720097107     0.5084178445943699
                  442.0      40.96950000000014    -0.8758665839696391   -0.32078019480376696      0.541715400305239
                  443.0      41.24100000000013    -0.7841187991357828    -0.6342416858406743     0.3853695673879246
                  444.0      41.51250000000013    -0.5408747059130121   -0.05353502626353546     0.3641549824796626
                  445.0     41.784000000000134    -1.0706303568393167    -0.2490365384460702     0.4572653534734009
                  446.0      42.05550000000014    -0.6077970769338918   -0.24190453164576198    0.49115068441046555
                  447.0     42.327000000000126    -0.4579117574638616    -0.3140378422821435     0.5415858401441567
                  448.0      42.59850000000013    -0.6175273836103656    0.12808003320794015     0.2239649450617373
                  449.0      42.87000000000013   -0.36684952409238747   -0.27729782695279326     0.6913336138489115
                  450.0     43.141500000000136    -0.4563429679091797   -0.12350858817838528     0.5557197839554598
                  451.0      43.41300000000014   -0.11781622511590228   -0.24353608572277707     0.6381562994765294
                  452.0      43.68450000000013    -0.6711969191713507   -0.34562226249861894      0.705506782296139
                  453.0      43.95600000000013   -0.35565675815448117   -0.19068588840123724     0.6707293880481345
                  454.0     44.227500000000134    -0.4571182345103182    -0.1693158253762057     0.5261069667707903
                  455.0      44.49900000000014    -0.5604721556772461   -0.15018183874454039     0.7820340469839823
                  456.0     44.770500000000126    -0.7020898860479861    -0.3260935603512678      0.656013612137291
                  457.0      45.04200000000013   -0.17527453156343142  -0.021631882287643123     0.5289275746813298
                  458.0      45.31350000000013     -0.357742119098603   -0.10791400902947856     0.4927755352379867
                  459.0     45.585000000000136     0.3659040501862165    0.18972531708923057     0.6713902637321885
                  460.0      45.85650000000014    0.38350822900849835    0.14607273878057114     0.5258062445620393
                  461.0      46.12800000000013    -0.3592060008007252  -0.012139131674494763     0.4969107627646475
                  462.0      46.39950000000013    0.04482595976350012    0.00535676463387702     0.5989340408031305
                  463.0     46.671000000000134    -0.4387864493210998    -0.1316002055115355     0.8218630988888732
                  464.0      46.94250000000014    -0.4795186381899299   -0.20404479685521437    0.33658481792637196
                  465.0      47.21400000000013   -0.16485474426980318   -0.08276245314016961    0.49644125575888964
                  466.0      47.48550000000013   -0.44210173070177916   -0.04185245510314317     0.8578891440471267
                  467.0      47.75700000000013    -0.2943554031858753   -0.08175303682278212     0.4460447303484575
                  468.0     48.028500000000136   -0.16421721621254903    0.23418275071686523     0.1888137281471233
                  469.0      48.30000000000014    0.35825220754115605   -0.05802546536792619      0.387377155572038
                  470.0      48.57150000000013   -0.44459738516846414   -0.12176462857992121     0.2810985988484597
                  471.0      48.84300000000013   -0.46582340173959835   -0.08516034029941366    0.22086382157307433
                  472.0      49.11450000000012    -0.3479320189146051     0.2646132875695457     0.6898193051771765
                  473.0     49.386000000000124    0.12049984226015908     0.2986314392733327     0.6405454363919041
                  474.0      49.65750000000013    -0.2428339869463514    0.45377724636825434     0.3854854583577001
                  475.0      49.92900000000016                    nan                    nan                    nan
                  476.0      50.20050000000013   -0.41244502281007556    0.06299625343457649     0.6644350226076539
                  477.0     50.472000000000136   -0.22590124995797112     0.4957640049723935     0.5308668169089085
                  478.0      50.74350000000014   -0.29675593663627353     0.4703997338667705     0.7811687277429908
                  479.0      51.01500000000014   -0.30123372392392866    0.16793076246307947     0.7065836768460542
                  480.0      51.28650000000012                    nan                    nan                    nan
                  481.0      51.55800000000012   -0.08512069879368767   -0.41004516306847094                    1.0
                  482.0     51.829500000000124    0.24803883989871167   -0.44884253981313194     0.8771056497739236
                  483.0      52.10100000000013   -0.19174872084799688    -0.4123581779377048     0.6729176472825648
                  484.0      52.37250000000013    -0.6108966417796751    -0.3426794766607095     0.8883987790440601
                  485.0      52.64400000000013                    nan                    nan                    nan
                  486.0      52.91550000000014    -0.3695912082385462   -0.32166634734780786    0.22777448924769525
                  487.0      53.18700000000014     0.1317687853759253    0.28777153931736166    0.17534303727053585
                  488.0      53.45850000000014     0.3195655065344454   -0.12204420723479714    0.17024145734974588
#------------------------------------------------------------------------------------------------------------------
# experiment: sac6_and_rvs167_raw_trajectories
# path: /Users/andreapicco/Google Drive/RESEARCH/EvoCellBio/Protein_tracking/Data/Rvs167/24_degree/Sc/sac6_and_rvs167_raw_trajectories
# file: 50.W1data.txt
# protein: Sac6-mCherry
# date: 23/01/19
# notes: the trajectory of the reference protein
# t_unit: s
# delta_t: 0.2715
# coord_unit: pxl
# intensity_normalisation: Absolute
# aligned_to: ../../../Fimbrin/24_degree/Sc/fim1_sc_24deg.txt
# alignment_angle: 1.5116683401714932 rad
# alignment_translation: [ 67.18759629 -28.36138249] pxl
# alignment_lag: -79.03349999999988 s
